time,ecg,bvp,gsr,rsp,skt,emg_zygo,emg_coru,emg_trap
0,0.873,35.895,12.313,34.851,27.945,4.906,6.508,14.557
1,0.833,35.973,12.317,34.831,27.942,4.744,6.467,14.557
2,0.807,35.552,12.266,34.85,27.942,4.823,6.426,14.557
3,0.79,35.73,12.309,34.86,27.942,4.783,6.426,14.516
4,0.764,35.847,12.379,34.85,27.942,4.824,6.507,14.435
5,0.744,35.915,12.294,34.869,27.942,4.824,6.386,14.434
6,0.738,35.657,12.328,34.851,27.942,4.865,6.425,14.434
7,0.757,35.788,12.36,34.85,27.945,4.743,6.466,14.475
8,0.764,35.924,12.411,34.85,27.942,4.783,6.345,14.394
9,0.767,35.964,12.357,34.86,27.945,4.824,6.425,14.515
10,0.77,35.561,12.266,34.86,27.948,4.783,6.507,14.638
11,0.79,35.711,12.316,34.86,27.942,4.824,6.386,14.843
12,0.803,35.808,12.29,34.86,27.945,4.824,6.425,15.089
13,0.807,35.857,12.324,34.86,27.948,4.824,6.466,15.294
14,0.807,35.656,12.383,34.841,27.949,4.865,6.548,15.5
15,0.826,35.769,12.306,34.869,27.942,4.906,6.549,15.624
16,0.826,35.914,12.364,34.87,27.945,4.825,6.508,15.706
17,0.82,36.069,12.38,34.851,27.945,4.824,6.508,15.829
18,0.817,35.649,12.407,34.86,27.952,4.865,6.549,15.871
19,0.803,35.779,12.353,34.841,27.942,4.906,6.59,15.871
20,0.781,35.876,12.235,34.841,27.938,4.784,6.549,15.709
21,0.777,35.551,12.269,34.812,27.941,4.742,6.549,15.544
22,0.777,35.605,12.281,34.821,27.942,4.823,6.468,15.38
23,0.784,35.749,12.32,34.86,27.945,4.702,6.629,15.175
24,0.784,35.856,12.368,34.85,27.945,4.863,6.631,15.051
25,0.777,35.464,12.306,34.85,27.945,4.865,6.672,14.928
26,0.774,35.614,12.317,34.879,27.948,4.865,6.713,14.724
27,0.764,35.721,12.344,34.86,27.949,4.865,6.754,14.599
28,0.754,35.808,12.391,34.85,27.952,4.906,6.754,14.314
29,0.77,35.473,12.4,34.85,27.952,4.865,6.795,14.108
30,0.767,35.623,12.263,34.86,27.949,4.865,6.836,13.902
31,0.774,35.75,12.332,34.85,27.952,4.824,6.796,13.656
32,0.774,35.808,12.262,34.841,27.949,4.987,6.795,13.45
33,0.774,35.406,12.312,34.85,27.955,4.866,6.755,13.245
34,0.764,35.546,12.387,34.841,27.952,4.906,6.795,13.04
35,0.77,35.682,12.302,34.86,27.952,4.987,6.755,12.753
36,0.77,35.75,12.352,34.841,27.952,4.907,6.714,12.628
37,0.774,35.492,12.333,34.841,27.942,4.865,6.713,12.424
38,0.764,35.633,12.391,34.85,27.945,4.865,6.794,12.259
39,0.751,35.75,12.329,34.822,27.948,4.865,6.836,12.095
40,0.748,35.78,12.333,34.917,27.952,4.824,6.755,11.93
41,0.747,35.54,12.309,34.822,27.949,4.865,6.795,11.766
42,0.744,35.662,12.313,34.831,27.945,4.906,6.714,11.561
43,0.754,35.808,12.344,34.85,27.952,4.825,6.754,11.397
44,0.764,36.106,12.36,34.86,27.952,4.905,6.673,11.354
45,0.764,35.496,12.321,34.87,27.962,4.987,6.835,11.232
46,0.757,35.633,12.325,34.86,27.956,5.029,6.837,11.19
47,0.741,35.731,12.352,34.87,27.962,5.03,6.877,11.068
48,0.76,35.453,12.411,34.86,27.959,4.989,6.837,10.985
49,0.754,35.479,12.376,34.841,27.956,4.988,6.796,10.822
50,0.764,35.633,12.298,34.821,27.956,5.029,6.755,10.739
51,0.767,35.702,12.317,34.812,27.945,4.867,6.714,10.575
52,0.761,35.319,12.293,34.802,27.942,4.824,6.672,10.411
53,0.764,35.459,12.309,34.792,27.942,4.865,6.713,10.287
54,0.78,35.566,12.352,34.802,27.945,4.865,6.632,10.164
55,0.78,35.663,12.325,34.783,27.935,4.824,6.672,9.96
56,0.774,35.376,12.305,34.792,27.941,4.824,6.55,9.917
57,0.777,35.527,12.356,34.783,27.942,4.824,6.63,9.713
58,0.777,35.643,12.36,34.773,27.938,4.905,6.509,9.67
59,0.754,35.721,12.36,34.782,27.941,4.865,6.508,9.589
60,0.764,35.3,12.337,34.821,27.942,4.865,6.508,9.466
61,0.754,35.44,12.321,34.802,27.942,4.824,6.589,9.465
62,0.741,35.546,12.297,34.792,27.945,4.865,6.509,9.262
63,0.744,35.643,12.317,34.792,27.952,4.824,6.589,9.259
64,0.751,35.338,12.364,34.783,27.949,4.824,6.59,9.219
65,0.741,35.488,12.325,34.802,27.942,4.865,6.509,9.137
66,0.741,35.605,12.34,34.802,27.945,4.824,6.63,9.055
67,0.747,35.654,12.352,34.812,27.945,4.824,6.631,9.013
68,0.747,35.242,12.407,34.792,27.948,4.865,6.509,8.932
69,0.767,35.343,12.372,34.792,27.945,4.865,6.63,8.809
70,0.764,35.469,12.314,34.792,27.945,4.865,6.55,8.808
71,0.767,35.815,12.317,34.783,27.945,4.865,6.63,8.767
72,0.761,35.301,12.282,34.783,27.945,4.865,6.55,8.726
73,0.757,35.44,12.313,34.763,27.938,4.824,6.549,8.685
74,0.767,35.546,12.352,34.763,27.941,4.783,6.468,8.603
75,0.777,35.26,12.317,34.773,27.938,4.702,6.507,8.48
76,0.79,35.286,12.317,34.763,27.941,4.782,6.467,8.438
77,0.79,35.42,12.352,34.792,27.942,4.783,6.507,8.316
78,0.774,35.527,12.384,34.792,27.952,4.864,6.508,8.315
79,0.771,35.279,12.345,34.802,27.945,4.906,6.549,8.356
80,0.787,35.411,12.305,34.831,27.952,4.865,6.549,8.397
81,0.767,35.537,12.317,34.812,27.952,4.946,6.549,8.356
82,0.774,35.634,12.313,34.792,27.952,4.907,6.549,8.275
83,0.771,35.184,12.348,34.792,27.952,4.906,6.59,8.274
84,0.761,35.314,12.376,34.811,27.952,4.865,6.631,8.233
85,0.754,35.449,12.36,34.802,27.956,4.906,6.59,8.151
86,0.767,35.547,12.325,34.802,27.945,4.947,6.549,8.15
87,0.764,35.058,12.368,34.812,27.945,4.866,6.59,8.15
88,0.77,35.217,12.392,34.792,27.948,4.824,6.59,8.028
89,0.777,35.333,12.349,34.792,27.955,4.865,6.59,8.027
90,0.774,35.392,12.251,34.802,27.952,4.865,6.59,7.987
91,0.774,35.23,12.281,34.783,27.949,4.906,6.631,7.946
92,0.78,35.362,12.281,34.802,27.949,4.865,6.59,7.945
93,0.787,35.498,12.309,34.792,27.949,4.865,6.59,7.945
94,0.78,35.547,12.403,34.773,27.949,4.906,6.631,7.945
95,0.8,35.087,12.298,34.792,27.949,4.825,6.59,7.945
96,0.797,35.236,12.336,34.783,27.945,4.824,6.631,7.864
97,0.803,35.362,12.36,34.783,27.945,4.865,6.631,7.863
98,0.79,35.402,12.395,34.792,27.948,4.824,6.631,7.822
99,0.79,35.143,12.357,34.783,27.945,4.824,6.59,7.781
100,0.787,35.265,12.348,34.802,27.955,4.865,6.59,7.862
101,0.78,35.391,12.325,34.821,27.959,4.906,6.671,7.822
102,0.771,35.22,12.293,34.793,27.959,4.906,6.713,7.822
103,0.774,35.266,12.313,34.792,27.959,4.947,6.672,7.944
104,0.777,35.401,12.391,34.802,27.956,5.029,6.672,7.945
105,0.774,35.498,12.337,34.792,27.962,4.989,6.672,7.945
106,0.771,34.991,12.337,34.783,27.952,4.948,6.631,7.945
107,0.777,35.12,12.364,34.773,27.952,4.907,6.59,7.742
108,0.784,35.227,12.391,34.763,27.945,4.784,6.549,7.74
109,0.787,35.333,12.357,34.734,27.948,4.742,6.508,7.699
110,0.784,35.028,12.321,34.753,27.942,4.783,6.549,7.658
111,0.787,35.188,12.321,34.744,27.942,4.783,6.508,7.576
112,0.797,35.314,12.254,34.744,27.942,4.742,6.508,7.616
113,0.797,35.392,12.324,34.734,27.938,4.783,6.508,7.535
114,0.8,34.942,12.375,34.753,27.941,4.742,6.508,7.534
115,0.803,35.1,12.298,34.754,27.945,4.823,6.467,7.494
116,0.803,35.207,12.317,34.734,27.942,4.824,6.467,7.453
117,0.797,35.276,12.371,34.725,27.942,4.783,6.467,7.493
118,0.797,34.989,12.403,34.724,27.942,4.742,6.386,7.534
119,0.787,35.149,12.322,34.734,27.948,4.783,6.547,7.575
120,0.767,35.265,12.344,34.734,27.945,4.824,6.59,7.616
121,0.793,35.334,12.329,34.744,27.942,4.783,6.59,7.535
122,0.78,34.98,12.294,34.753,27.942,4.824,6.59,7.616
123,0.774,35.129,12.321,34.734,27.948,4.824,6.59,7.576
124,0.777,35.237,12.383,34.744,27.945,4.824,6.631,7.575
125,0.764,35.247,12.278,34.753,27.952,4.824,6.631,7.616
126,0.777,35.017,12.32,34.744,27.942,4.824,6.631,7.576
127,0.774,35.168,12.336,34.753,27.948,4.824,6.59,7.616
128,0.78,35.266,12.395,34.734,27.945,4.824,6.631,7.657
129,0.793,34.931,12.353,34.725,27.942,4.824,6.55,7.576
130,0.79,34.899,12.372,34.724,27.948,4.824,6.59,7.575
131,0.793,35.004,12.29,34.705,27.945,4.743,6.631,7.535
132,0.8,35.12,12.266,34.705,27.935,4.701,6.509,7.534
133,0.8,34.69,12.34,34.715,27.938,4.782,6.427,7.453
134,0.803,34.801,12.36,34.715,27.935,4.702,6.507,7.412
135,0.803,34.955,12.302,34.734,27.941,4.742,6.467,7.452
136,0.813,35.053,12.328,34.734,27.945,4.823,6.507,7.371
137,0.816,34.804,12.344,34.715,27.948,4.783,6.549,7.452
138,0.81,34.955,12.368,34.724,27.949,4.824,6.63,7.493
139,0.8,35.072,12.36,34.734,27.949,4.824,6.631,7.453
140,0.794,35.159,12.302,34.753,27.952,4.824,6.631,7.493
141,0.8,34.777,12.336,34.744,27.956,4.865,6.631,7.453
142,0.787,34.907,12.352,34.744,27.956,4.865,6.631,7.452
143,0.8,35.052,12.356,34.725,27.956,4.906,6.631,7.371
144,0.8,35.121,12.368,34.715,27.952,4.906,6.631,7.411
145,0.797,34.872,12.329,34.744,27.952,4.906,6.672,7.452
146,0.797,35.013,12.317,34.753,27.956,4.865,6.672,7.534
147,0.79,35.139,12.325,34.734,27.949,4.946,6.631,7.494
148,0.797,35.179,12.34,34.734,27.952,4.866,6.59,7.453
149,0.82,34.844,12.407,34.715,27.945,4.824,6.671,7.452
150,0.813,34.965,12.318,34.734,27.952,4.824,6.672,7.452
151,0.813,35.091,12.348,34.744,27.949,4.865,6.631,7.412
152,0.82,35.121,12.352,34.725,27.949,4.865,6.631,7.452
153,0.823,34.738,12.356,34.734,27.949,4.865,6.55,7.412
154,0.83,34.907,12.345,34.734,27.945,4.824,6.671,7.411
155,0.83,34.975,12.329,34.725,27.948,4.824,6.55,7.33
156,0.836,34.88,12.352,34.705,27.952,4.783,6.59,7.37
157,0.826,34.87,12.317,34.715,27.949,4.864,6.59,7.33
158,0.817,35.004,12.375,34.724,27.949,4.865,6.59,7.289
159,0.833,35.13,12.395,34.734,27.952,4.946,6.59,7.288
160,0.83,34.719,12.38,34.744,27.956,4.907,6.631,7.329
161,0.82,34.83,12.357,34.753,27.956,4.947,6.672,7.329
162,0.81,34.955,12.423,34.744,27.956,4.988,6.631,7.41
163,0.794,35.043,12.373,34.734,27.959,4.948,6.712,7.452
164,0.797,34.66,12.329,34.715,27.952,4.907,6.632,7.371
165,0.79,34.791,12.376,34.715,27.956,4.906,6.631,7.37
166,0.787,34.936,12.321,34.724,27.945,4.865,6.631,7.289
167,0.787,34.995,12.336,34.686,27.945,4.784,6.631,7.247
168,0.8,34.602,12.344,34.705,27.945,4.824,6.468,7.206
169,0.813,34.742,12.38,34.686,27.945,4.783,6.548,7.165
170,0.81,34.859,12.376,34.695,27.938,4.742,6.508,7.165
171,0.813,34.946,12.337,34.686,27.938,4.783,6.467,7.165
172,0.82,34.678,12.325,34.695,27.938,4.824,6.426,7.165
173,0.833,34.829,12.325,34.695,27.945,4.783,6.507,7.084
174,0.839,34.975,12.333,34.695,27.942,4.742,6.467,7.042
175,0.836,35.014,12.36,34.686,27.948,4.783,6.507,7.082
176,0.843,34.66,12.325,34.686,27.942,4.783,6.508,7.042
177,0.836,34.81,12.321,34.686,27.945,4.824,6.508,7.042
178,0.833,34.917,12.356,34.676,27.948,4.783,6.508,7.082
179,0.813,34.956,12.403,34.705,27.942,4.824,6.549,7.042
180,0.81,34.727,12.322,34.696,27.948,4.824,6.549,7.042
181,0.803,34.878,12.321,34.686,27.949,4.865,6.549,7.042
182,0.8,34.975,12.344,34.686,27.952,4.865,6.59,7.001
183,0.8,34.813,12.337,34.667,27.949,4.824,6.59,7.041
184,0.803,34.706,12.376,34.666,27.942,4.865,6.509,6.96
185,0.797,34.858,12.353,34.676,27.938,4.824,6.549,6.96
186,0.81,34.984,12.333,34.676,27.935,4.743,6.508,6.919
187,0.807,34.583,12.337,34.667,27.935,4.742,6.508,6.878
188,0.813,34.694,12.379,34.666,27.938,4.742,6.508,6.796
189,0.826,34.82,12.407,34.666,27.941,4.742,6.427,6.917
190,0.826,34.927,12.318,34.676,27.948,4.783,6.548,6.878
191,0.826,34.707,12.317,34.676,27.949,4.864,6.549,6.877
192,0.836,34.858,12.305,34.695,27.949,4.824,6.549,6.877
193,0.839,35.004,12.313,34.667,27.952,4.865,6.59,6.877
194,0.846,35.082,12.391,34.686,27.945,4.987,6.549,6.959
195,0.84,34.776,12.282,34.695,27.948,4.907,6.59,6.878
196,0.859,34.916,12.348,34.686,27.955,4.947,6.671,6.877
197,0.859,35.033,12.352,34.676,27.952,4.947,6.591,6.877
198,0.853,35.101,12.411,34.657,27.956,4.907,6.631,6.877
199,0.833,34.824,12.33,34.666,27.956,4.865,6.672,6.959
200,0.833,34.975,12.329,34.666,27.952,4.824,6.631,6.878
201,0.82,35.101,12.321,34.666,27.952,4.905,6.672,6.877
202,0.826,35.16,12.243,34.686,27.949,4.865,6.672,6.877
203,0.826,34.968,12.324,34.647,27.952,4.906,6.672,6.837
204,0.83,35.101,12.368,34.666,27.956,4.865,6.631,6.918
205,0.82,35.217,12.235,34.686,27.949,4.865,6.631,6.959
206,0.82,35.247,12.312,34.657,27.945,4.865,6.672,6.919
207,0.817,35.123,12.379,34.647,27.955,4.824,6.672,6.919
208,0.823,35.246,12.419,34.666,27.952,4.824,6.672,6.878
209,0.836,35.353,12.345,34.638,27.949,4.865,6.753,6.877
210,0.839,35.268,12.341,34.647,27.949,4.865,6.714,7.0
211,0.852,35.18,12.337,34.647,27.949,4.824,6.672,7.041
212,0.84,35.295,12.325,34.628,27.949,4.824,6.713,7.082
213,0.852,35.42,12.336,34.637,27.952,4.865,6.632,7.042
214,0.866,35.249,12.368,34.647,27.956,4.906,6.631,7.042
215,0.876,35.381,12.352,34.647,27.949,4.825,6.631,7.082
216,0.869,35.517,12.345,34.647,27.962,4.987,6.712,7.042
217,0.859,35.595,12.411,34.657,27.959,4.988,6.754,7.123
218,0.862,35.327,12.392,34.666,27.959,4.907,6.754,7.205
219,0.853,35.459,12.294,34.657,27.963,4.906,6.836,7.165
220,0.849,35.566,12.348,34.638,27.952,4.906,6.714,7.206
221,0.846,35.663,12.341,34.618,27.956,4.906,6.713,7.206
222,0.84,35.587,12.348,34.618,27.952,4.865,6.672,7.287
223,0.83,35.721,12.313,34.599,27.945,4.824,6.631,7.247
224,0.839,35.808,12.36,34.589,27.945,4.783,6.59,7.166
225,0.83,35.905,12.329,34.656,27.942,4.783,6.59,7.206
226,0.833,35.753,12.297,34.599,27.942,4.742,6.549,7.165
227,0.83,35.866,12.363,34.589,27.945,4.742,6.508,7.124
228,0.862,35.992,12.36,34.579,27.942,4.783,6.467,7.246
229,0.866,36.051,12.298,34.579,27.942,4.742,6.467,7.166
230,0.866,35.927,12.305,34.589,27.945,4.742,6.467,7.124
231,0.872,36.05,12.344,34.579,27.945,4.742,6.426,7.165
232,0.866,36.176,12.352,34.579,27.945,4.742,6.466,7.165
233,0.869,36.187,12.348,34.598,27.935,4.783,6.467,7.206
234,0.879,36.091,12.348,34.57,27.945,4.783,6.467,7.165
235,0.892,36.243,12.364,34.579,27.945,4.783,6.467,7.124
236,0.895,36.341,12.325,34.579,27.952,4.824,6.507,7.205
237,0.889,36.371,12.399,34.598,27.949,4.824,6.508,7.206
238,0.879,36.323,12.345,34.579,27.945,4.824,6.508,7.287
239,0.879,36.466,12.262,34.589,27.948,4.824,6.549,7.288
240,0.863,36.564,12.301,34.589,27.949,4.783,6.59,7.329
241,0.853,36.363,12.344,34.589,27.949,4.742,6.59,7.37
242,0.849,36.476,12.329,34.56,27.952,4.742,6.59,7.37
243,0.856,36.592,12.333,34.56,27.942,4.823,6.631,7.492
244,0.856,36.67,12.34,34.55,27.945,4.702,6.59,7.534
245,0.859,36.508,12.356,34.541,27.942,4.62,6.549,7.616
246,0.869,36.631,12.329,34.55,27.945,4.7,6.508,7.657
247,0.869,36.767,12.379,34.56,27.938,4.742,6.508,7.658
248,0.879,36.864,12.368,34.55,27.945,4.783,6.63,7.698
249,0.872,36.75,12.274,34.608,27.948,4.783,6.59,7.861
250,0.892,36.883,12.324,34.599,27.955,4.864,6.712,7.944
251,0.905,36.999,12.321,34.589,27.949,4.824,6.754,8.026
252,0.912,37.077,12.348,34.589,27.952,4.824,6.754,8.068
253,0.915,36.896,12.344,34.579,27.952,4.865,6.795,8.028
254,0.915,37.028,12.383,34.57,27.952,4.865,6.795,8.109
255,0.918,37.164,12.353,34.57,27.949,4.865,6.795,8.109
256,0.918,37.184,12.325,34.57,27.952,4.824,6.755,8.109
257,0.925,36.983,12.395,34.56,27.956,4.865,6.795,8.069
258,0.915,37.106,12.368,34.55,27.956,4.865,6.836,8.028
259,0.922,37.232,12.302,34.579,27.956,4.824,6.877,8.068
260,0.925,37.262,12.34,34.579,27.949,4.824,6.837,8.069
261,0.922,37.166,12.352,34.551,27.952,4.865,6.837,8.028
262,0.918,37.29,12.345,34.617,27.949,4.865,6.837,8.027
263,0.909,37.387,12.321,34.57,27.949,4.824,6.837,8.068
264,0.902,37.407,12.368,34.55,27.949,4.905,6.837,8.028
265,0.899,37.254,12.372,34.598,27.952,4.865,6.877,7.946
266,0.905,37.386,12.329,34.551,27.949,4.865,6.837,7.945
267,0.899,37.455,12.407,34.541,27.949,4.865,6.837,7.945
268,0.905,37.341,12.372,34.531,27.955,4.946,6.796,7.905
269,0.908,37.445,12.349,34.55,27.949,4.866,6.795,7.904
270,0.931,37.561,12.302,34.531,27.952,4.824,6.795,7.863
271,0.938,37.677,12.328,34.531,27.952,4.783,6.795,7.822
272,0.935,37.41,12.321,34.56,27.956,4.905,6.836,7.822
273,0.941,37.551,12.325,34.56,27.959,4.906,6.796,7.822
274,0.935,37.639,12.399,34.57,27.959,4.987,6.877,7.822
275,0.948,37.716,12.349,34.541,27.963,4.948,6.959,7.822
276,0.941,37.42,12.341,34.531,27.959,4.947,6.797,7.822
277,0.948,37.542,12.368,34.521,27.952,4.907,6.836,7.822
278,0.941,37.658,12.384,34.502,27.952,4.744,6.755,7.741
279,0.922,37.707,12.282,34.502,27.949,4.742,6.714,7.699
280,0.918,37.535,12.32,34.492,27.949,4.742,6.672,7.658
281,0.915,37.715,12.321,34.492,27.938,4.742,6.672,7.576
282,0.915,37.794,12.325,34.492,27.941,4.783,6.672,7.616
283,0.912,37.833,12.336,34.502,27.942,4.783,6.631,7.535
284,0.915,37.651,12.379,34.492,27.942,4.783,6.672,7.453
285,0.905,37.784,12.329,34.492,27.945,4.783,6.672,7.615
286,0.912,37.9,12.333,34.502,27.942,4.783,6.672,7.535
287,0.902,37.94,12.356,34.502,27.948,4.783,6.672,7.494
288,0.902,37.662,12.36,34.502,27.942,4.824,6.672,7.494
289,0.915,37.784,12.306,34.492,27.945,4.743,6.672,7.453
290,0.915,37.9,12.34,34.483,27.948,4.823,6.631,7.412
291,0.915,37.959,12.337,34.473,27.949,4.865,6.672,7.411
292,0.915,37.768,12.34,34.482,27.945,4.784,6.631,7.452
293,0.922,37.89,12.36,34.492,27.948,4.864,6.631,7.371
294,0.922,37.987,12.313,34.492,27.945,4.865,6.672,7.411
295,0.918,37.72,12.344,34.483,27.948,4.865,6.631,7.371
296,0.905,37.784,12.333,34.454,27.949,4.824,6.631,7.37
297,0.902,37.881,12.379,34.473,27.955,4.783,6.672,7.33
298,0.892,37.978,12.29,34.444,27.942,4.905,6.591,7.289
299,0.882,37.614,12.336,34.453,27.935,4.744,6.631,7.207
300,0.882,37.754,12.329,34.444,27.938,4.661,6.509,7.206
301,0.863,37.881,12.399,34.453,27.948,4.741,6.508,7.206
302,0.859,37.968,12.368,34.463,27.945,4.783,6.549,7.165
303,0.862,37.701,12.399,34.473,27.948,4.783,6.59,7.206
304,0.859,37.842,12.294,34.482,27.952,4.864,6.549,7.206
305,0.846,37.987,12.332,34.483,27.949,4.865,6.63,7.165
306,0.849,38.036,12.352,34.463,27.949,4.906,6.59,7.165
307,0.843,37.72,12.348,34.463,27.955,4.906,6.631,7.206
308,0.853,37.88,12.313,34.473,27.952,4.906,6.631,7.206
309,0.853,37.987,12.34,34.473,27.956,4.825,6.631,7.165
310,0.853,38.027,12.36,34.482,27.949,4.865,6.631,7.124
311,0.849,37.797,12.399,34.473,27.952,4.906,6.59,7.246
312,0.853,37.948,12.404,34.454,27.949,4.865,6.59,7.166
313,0.859,38.065,12.357,34.453,27.949,4.824,6.671,7.165
314,0.859,38.075,12.348,34.444,27.949,4.946,6.631,7.206
315,0.856,37.788,12.36,34.444,27.955,4.988,6.631,7.084
316,0.856,37.929,12.352,34.453,27.945,4.826,6.631,7.042
317,0.856,38.036,12.333,34.434,27.952,4.865,6.672,7.164
318,0.84,38.181,12.364,34.444,27.949,4.824,6.631,7.043
319,0.826,37.904,12.384,34.444,27.949,4.865,6.631,7.123
320,0.83,38.026,12.337,34.434,27.945,4.824,6.672,7.083
321,0.817,38.123,12.352,34.444,27.955,4.905,6.713,7.042
322,0.81,37.74,12.317,34.425,27.956,4.865,6.672,7.082
323,0.8,37.775,12.34,34.444,27.945,4.824,6.631,7.042
324,0.807,37.91,12.383,34.415,27.952,4.905,6.672,7.082
325,0.8,37.978,12.302,34.424,27.952,4.825,6.672,7.123
326,0.8,37.816,12.317,34.424,27.949,4.824,6.631,7.083
327,0.794,37.958,12.344,34.405,27.945,4.824,6.672,7.042
328,0.8,38.094,12.38,34.453,27.952,4.865,6.672,7.082
329,0.803,38.162,12.399,34.444,27.962,4.906,6.713,7.083
330,0.79,37.75,12.228,34.444,27.963,4.987,6.713,7.205
331,0.797,37.871,12.316,34.453,27.963,4.988,6.835,7.165
332,0.803,37.997,12.325,34.463,27.963,4.907,6.796,7.206
333,0.787,38.046,12.336,34.434,27.959,4.906,6.755,7.165
334,0.79,37.692,12.368,34.415,27.949,4.865,6.632,7.165
335,0.79,37.822,12.372,34.443,27.945,4.824,6.672,7.043
336,0.79,37.939,12.321,34.405,27.942,4.743,6.591,7.001
337,0.79,37.978,12.372,34.376,27.945,4.701,6.631,7.041
338,0.79,37.816,12.38,34.386,27.945,4.782,6.55,6.96
339,0.787,37.948,12.278,34.386,27.948,4.824,6.59,7.0
340,0.767,38.065,12.32,34.376,27.942,4.783,6.549,7.041
341,0.774,38.095,12.313,34.386,27.952,4.783,6.549,7.042
342,0.764,37.836,12.317,34.376,27.952,4.783,6.59,7.001
343,0.754,37.968,12.329,34.386,27.945,4.783,6.549,7.001
344,0.754,38.065,12.356,34.357,27.942,4.783,6.63,7.001
345,0.761,38.334,12.348,34.385,27.945,4.824,6.631,7.001
346,0.761,37.925,12.337,34.376,27.945,4.824,6.59,7.041
347,0.761,38.045,12.387,34.386,27.942,4.865,6.631,7.042
348,0.767,38.142,12.372,34.386,27.948,4.824,6.672,7.042
349,0.774,37.731,12.298,34.367,27.949,4.824,6.672,7.082
350,0.777,37.765,12.332,34.376,27.949,4.824,6.631,7.002
351,0.777,37.881,12.297,34.386,27.949,4.824,6.631,7.082
352,0.771,37.978,12.324,34.376,27.949,4.865,6.631,7.002
353,0.764,37.816,12.356,34.338,27.945,4.865,6.672,7.041
354,0.767,37.91,12.325,34.337,27.945,4.824,6.672,7.042
355,0.764,38.064,12.34,34.337,27.942,4.702,6.631,6.96
356,0.767,38.133,12.341,34.328,27.942,4.701,6.55,7.0
357,0.77,37.76,12.391,34.308,27.938,4.701,6.59,6.96
358,0.774,37.919,12.298,34.337,27.945,4.701,6.549,6.96
359,0.758,38.064,12.336,34.414,27.948,4.782,6.59,6.919
360,0.754,38.114,12.317,34.348,27.949,4.783,6.631,7.0
361,0.741,38.239,12.422,34.347,27.949,4.986,6.672,7.001
362,0.744,38.422,12.349,34.347,27.952,4.866,6.713,7.041
363,0.747,38.52,12.341,34.366,27.952,4.865,6.672,7.001
364,0.741,38.569,12.333,34.347,27.949,4.865,6.672,7.041
365,0.738,37.697,12.337,34.366,27.959,4.906,6.672,7.082
366,0.741,37.813,12.348,34.386,27.963,4.906,6.631,7.042
367,0.747,37.929,12.395,34.357,27.952,4.825,6.631,7.042
368,0.757,37.978,12.325,34.347,27.952,4.865,6.631,6.96
369,0.774,37.864,12.325,34.347,27.949,4.906,6.631,6.96
370,0.758,37.997,12.321,34.347,27.955,4.865,6.631,6.96
371,0.774,38.094,12.348,34.347,27.949,4.865,6.631,6.878
372,0.774,38.411,12.407,34.337,27.952,4.824,6.631,7.0
373,0.784,37.897,12.353,34.366,27.949,4.824,6.672,6.96
374,0.774,38.026,12.329,34.338,27.949,4.824,6.631,6.878
375,0.78,38.104,12.383,34.347,27.955,4.824,6.631,6.918
376,0.793,38.009,12.341,34.337,27.949,4.824,6.59,6.796
377,0.78,38.065,12.321,34.328,27.952,4.783,6.59,6.877
378,0.761,38.2,12.336,34.328,27.949,4.824,6.549,6.918
379,0.744,38.297,12.364,34.318,27.945,4.783,6.59,6.878
380,0.747,37.857,12.403,34.318,27.952,4.824,6.59,6.837
381,0.734,37.997,12.31,34.318,27.949,4.865,6.59,6.796
382,0.76,38.123,12.328,34.347,27.952,4.784,6.549,6.836
383,0.744,38.22,12.325,34.366,27.956,4.864,6.63,6.796
384,0.754,37.981,12.399,34.366,27.956,4.906,6.509,6.795
385,0.738,38.103,12.345,34.347,27.959,4.987,6.711,6.958
386,0.738,38.229,12.313,34.328,27.959,4.948,6.632,6.96
387,0.741,38.288,12.336,34.318,27.959,4.947,6.672,6.878
388,0.741,38.02,12.372,34.328,27.952,4.947,6.631,6.837
389,0.744,38.161,12.372,34.308,27.949,4.866,6.59,6.714
390,0.744,38.259,12.271,34.299,27.949,4.743,6.509,6.794
391,0.76,38.298,12.316,34.289,27.952,4.783,6.467,6.673
392,0.754,37.934,12.317,34.289,27.945,4.742,6.426,6.672
393,0.77,38.074,12.329,34.289,27.945,4.742,6.426,6.713
394,0.764,38.152,12.36,34.298,27.945,4.783,6.426,6.672
395,0.78,38.211,12.325,34.26,27.942,4.783,6.385,6.631
396,0.771,38.106,12.333,34.289,27.945,4.783,6.466,6.631
397,0.77,38.248,12.36,34.279,27.942,4.783,6.426,6.631
398,0.77,38.355,12.36,34.27,27.945,4.742,6.466,6.672
399,0.748,38.51,12.282,34.27,27.942,4.783,6.426,6.631
400,0.751,38.099,12.336,34.27,27.948,4.824,6.385,6.672
401,0.754,38.239,12.313,34.26,27.945,4.783,6.507,6.631
402,0.761,38.307,12.356,34.26,27.952,4.824,6.467,6.631
403,0.751,38.049,12.356,34.26,27.949,4.783,6.386,6.712
404,0.761,38.056,12.372,34.25,27.955,4.824,6.507,6.632
405,0.761,38.19,12.356,34.289,27.956,4.865,6.549,6.672
406,0.754,38.297,12.341,34.27,27.949,4.865,6.386,6.713
407,0.748,38.068,12.376,34.279,27.949,4.824,6.466,6.713
408,0.757,38.162,12.333,34.25,27.945,4.783,6.467,6.713
409,0.754,38.307,12.282,34.26,27.948,4.783,6.467,6.713
410,0.757,38.356,12.277,34.231,27.945,4.824,6.386,6.713
411,0.774,37.992,12.367,34.212,27.945,4.743,6.344,6.672
412,0.767,38.123,12.356,34.221,27.942,4.661,6.343,6.631
413,0.78,38.258,12.376,34.212,27.938,4.782,6.303,6.631
414,0.787,38.346,12.314,34.221,27.938,4.824,6.302,6.631
415,0.787,38.126,12.325,34.212,27.945,4.783,6.343,6.672
416,0.797,38.268,12.336,34.221,27.948,4.783,6.425,6.794
417,0.8,38.356,12.368,34.24,27.952,4.864,6.385,6.917
418,0.781,38.433,12.267,34.231,27.945,4.865,6.466,6.959
419,0.774,38.156,12.344,34.231,27.952,4.865,6.426,7.0
420,0.764,38.278,12.305,34.231,27.956,4.906,6.466,7.041
421,0.764,38.384,12.352,34.24,27.956,4.825,6.507,7.042
422,0.767,38.424,12.364,34.231,27.959,4.905,6.467,7.042
423,0.761,38.156,12.333,34.221,27.956,4.906,6.548,7.123
424,0.761,38.297,12.348,34.212,27.952,4.825,6.468,7.124
425,0.757,38.385,12.384,34.211,27.952,4.865,6.548,7.165
426,0.767,38.385,12.349,34.202,27.956,4.906,6.549,7.124
427,0.767,38.117,12.337,34.211,27.949,4.865,6.468,7.124
428,0.77,38.239,12.337,34.211,27.952,4.824,6.467,7.043
429,0.77,38.336,12.337,34.192,27.956,4.865,6.467,7.123
430,0.767,38.145,12.34,34.202,27.949,4.865,6.426,7.124
431,0.777,38.143,12.341,34.192,27.949,4.784,6.507,7.002
432,0.793,38.268,12.317,34.183,27.949,4.742,6.508,7.041
433,0.793,38.375,12.317,34.192,27.952,4.823,6.467,7.082
434,0.793,38.031,12.36,34.173,27.945,4.783,6.386,7.042
435,0.803,38.133,12.329,34.173,27.945,4.783,6.507,7.042
436,0.803,38.277,12.344,34.163,27.952,4.783,6.508,7.001
437,0.813,38.365,12.344,34.163,27.945,4.824,6.467,7.001
438,0.777,38.031,12.395,34.173,27.952,4.824,6.507,7.041
439,0.774,38.181,12.388,34.182,27.962,4.824,6.508,7.082
440,0.767,38.297,12.318,34.202,27.956,4.946,6.549,7.123
441,0.777,38.375,12.332,34.192,27.959,4.988,6.59,7.124
442,0.771,38.05,12.278,34.163,27.956,4.988,6.549,7.002
443,0.754,38.152,12.34,34.173,27.949,4.907,6.508,7.082
444,0.757,38.268,12.383,34.144,27.952,4.825,6.467,7.002
445,0.761,38.336,12.31,34.153,27.945,4.824,6.386,7.001
446,0.744,37.934,12.313,34.134,27.942,4.783,6.385,6.879
447,0.754,38.103,12.352,34.134,27.948,4.742,6.344,6.877
448,0.77,38.181,12.391,34.124,27.945,4.701,6.466,6.877
449,0.777,38.22,12.345,34.144,27.942,4.742,6.386,6.837
450,0.777,37.924,12.309,34.125,27.945,4.823,6.466,6.837
451,0.787,38.045,12.297,34.124,27.945,4.743,6.426,6.837
452,0.787,38.162,12.321,34.172,27.948,4.823,6.507,6.837
453,0.78,38.163,12.305,34.134,27.942,4.783,6.549,6.877
454,0.784,37.952,12.364,34.115,27.945,4.783,6.508,6.877
455,0.803,38.103,12.231,34.143,27.945,4.824,6.589,7.0
456,0.787,38.191,12.316,34.134,27.942,4.783,6.712,7.041
457,0.787,37.914,12.36,34.105,27.948,4.824,6.672,7.001
458,0.787,37.844,12.388,34.134,27.949,4.824,6.672,7.082
459,0.771,37.968,12.321,34.144,27.949,4.865,6.672,7.123
460,0.774,38.074,12.344,34.134,27.945,4.784,6.713,7.165
461,0.767,37.75,12.305,34.105,27.952,4.824,6.754,7.165
462,0.751,37.842,12.325,34.182,27.942,4.783,6.714,7.165
463,0.761,37.987,12.313,34.087,27.942,4.742,6.672,7.206
464,0.761,38.075,12.371,34.086,27.938,4.783,6.672,7.206
465,0.764,37.663,12.356,34.105,27.938,4.702,6.713,7.165
466,0.767,37.803,12.317,34.105,27.945,4.782,6.713,7.165
467,0.777,37.939,12.391,34.115,27.948,4.824,6.754,7.206
468,0.787,37.997,12.396,34.124,27.952,4.865,6.754,7.287
469,0.79,37.624,12.314,34.115,27.952,4.906,6.836,7.288
470,0.8,37.774,12.348,34.105,27.952,4.865,6.796,7.247
471,0.79,37.871,12.344,34.095,27.956,4.906,6.836,7.288
472,0.79,37.93,12.391,34.114,27.949,4.906,6.837,7.288
473,0.797,37.681,12.333,34.115,27.949,4.906,6.837,7.288
474,0.794,37.803,12.36,34.105,27.952,4.906,6.796,7.329
475,0.797,37.919,12.337,34.076,27.952,4.865,6.795,7.289
476,0.803,37.959,12.321,34.105,27.949,4.906,6.877,7.247
477,0.807,37.518,12.391,34.086,27.949,4.865,6.796,7.288
478,0.797,37.638,12.341,34.086,27.952,4.824,6.836,7.288
479,0.781,37.774,12.321,34.086,27.956,4.946,6.796,7.288
480,0.784,37.766,12.313,34.076,27.949,4.825,6.795,7.369
481,0.767,37.564,12.34,34.066,27.949,4.905,6.795,7.37
482,0.774,37.687,12.325,34.085,27.952,4.865,6.836,7.289
483,0.774,37.803,12.333,34.067,27.949,4.865,6.837,7.329
484,0.774,37.613,12.376,34.057,27.952,4.824,6.796,7.451
485,0.771,37.601,12.345,34.066,27.952,4.905,6.795,7.412
486,0.777,37.726,12.333,34.066,27.952,4.865,6.795,7.411
487,0.784,37.832,12.352,34.076,27.956,4.865,6.795,7.411
488,0.78,37.536,12.376,34.076,27.959,4.987,6.917,7.533
489,0.784,37.658,12.329,34.086,27.963,4.948,6.878,7.616
490,0.79,37.765,12.333,34.076,27.97,4.988,6.918,7.535
491,0.79,37.823,12.34,34.066,27.956,4.988,6.919,7.534
492,0.784,37.277,12.352,34.057,27.956,4.826,6.756,7.575
493,0.79,37.396,12.356,34.028,27.952,4.865,6.795,7.535
494,0.784,37.503,12.345,34.018,27.952,4.784,6.755,7.412
495,0.806,37.6,12.348,34.018,27.942,4.742,6.754,7.411
496,0.794,37.371,12.356,34.018,27.948,4.783,6.632,7.371
497,0.79,37.493,12.384,33.999,27.942,4.824,6.712,7.33
498,0.777,37.6,12.364,34.018,27.942,4.824,6.591,7.329
499,0.787,37.687,12.22,34.018,27.948,4.743,6.671,7.289
500,0.771,37.362,12.289,34.018,27.942,4.742,6.672,7.329
501,0.764,37.503,12.336,34.008,27.945,4.783,6.672,7.289
502,0.774,37.629,12.352,33.999,27.945,4.824,6.631,7.288
503,0.761,37.668,12.337,34.008,27.948,4.824,6.672,7.288
504,0.764,37.276,12.333,34.018,27.945,4.824,6.631,7.288
505,0.77,37.435,12.333,34.018,27.948,4.783,6.631,7.329
506,0.77,37.542,12.329,34.018,27.949,4.783,6.631,7.289
507,0.77,37.562,12.379,34.008,27.949,4.742,6.672,7.207
508,0.783,37.409,12.337,33.999,27.949,4.823,6.631,7.287
509,0.784,37.532,12.266,33.999,27.945,4.824,6.631,7.247
510,0.784,37.639,12.293,33.989,27.948,4.824,6.59,7.206
511,0.78,37.4,12.367,33.979,27.952,4.743,6.509,7.206
512,0.767,37.263,12.329,33.979,27.949,4.823,6.63,7.287
513,0.79,37.387,12.344,33.979,27.945,4.824,6.631,7.329
514,0.793,37.484,12.344,33.95,27.942,4.824,6.468,7.207
515,0.797,37.331,12.356,33.95,27.942,4.743,6.386,7.165
516,0.794,37.454,12.337,33.96,27.942,4.742,6.547,7.084
517,0.8,37.609,12.36,33.989,27.942,4.742,6.508,7.042
518,0.794,37.697,12.384,33.998,27.952,4.823,6.508,7.164
519,0.787,37.209,12.29,33.979,27.949,4.865,6.549,7.246
520,0.777,37.348,12.313,33.998,27.949,4.906,6.468,7.206
521,0.767,37.483,12.293,33.979,27.959,4.906,6.507,7.206
522,0.78,37.561,12.324,34.065,27.956,4.865,6.549,7.206
523,0.774,37.284,12.325,33.98,27.952,4.906,6.63,7.206
524,0.777,37.416,12.391,33.979,27.952,4.865,6.59,7.125
525,0.771,37.542,12.236,33.979,27.959,4.906,6.549,7.165
526,0.757,37.6,12.328,33.96,27.952,4.906,6.508,7.165
527,0.761,37.304,12.364,33.969,27.956,4.906,6.549,7.206
528,0.78,37.435,12.411,33.96,27.952,4.865,6.59,7.206
529,0.774,37.561,12.326,33.95,27.952,4.865,6.59,7.165
530,0.774,37.581,12.333,33.96,27.949,4.865,6.59,7.124
531,0.774,37.227,12.305,33.95,27.952,4.865,6.509,7.083
532,0.764,37.357,12.336,33.969,27.952,4.865,6.549,7.083
533,0.78,37.474,12.313,33.96,27.956,4.824,6.63,7.083
534,0.79,37.475,12.383,33.941,27.952,4.865,6.55,7.042
535,0.78,37.341,12.286,33.96,27.945,4.784,6.549,6.96
536,0.79,37.474,12.32,33.941,27.945,4.783,6.59,7.041
537,0.79,37.571,12.379,33.94,27.955,4.864,6.549,7.042
538,0.771,37.457,12.376,33.921,27.949,4.865,6.508,7.001
539,0.764,37.302,12.388,33.94,27.949,4.824,6.63,7.041
540,0.767,37.454,12.333,34.008,27.949,4.905,6.631,7.042
541,0.754,37.552,12.301,33.922,27.945,4.825,6.631,7.123
542,0.77,37.322,12.282,33.94,27.952,4.865,6.59,7.043
543,0.774,37.454,12.32,33.96,27.949,4.865,6.631,7.123
544,0.767,37.561,12.391,33.96,27.955,4.946,6.672,7.124
545,0.751,37.658,12.314,33.95,27.959,4.988,6.753,7.205
546,0.754,37.285,12.368,33.95,27.963,5.029,6.795,7.206
547,0.751,37.425,12.341,33.941,27.963,4.989,6.795,7.328
548,0.731,37.522,12.399,33.921,27.959,4.907,6.755,7.289
549,0.76,37.581,12.388,33.921,27.952,4.906,6.714,7.288
550,0.751,37.169,12.29,33.911,27.942,4.825,6.632,7.125
551,0.767,37.299,12.313,33.921,27.948,4.824,6.631,7.165
552,0.761,37.406,12.297,33.902,27.942,4.743,6.631,7.124
553,0.764,37.503,12.309,33.902,27.942,4.783,6.712,7.083
554,0.754,37.207,12.387,33.883,27.938,4.742,6.591,7.002
555,0.78,37.357,12.298,33.873,27.941,4.783,6.631,6.96
556,0.774,37.483,12.317,33.873,27.945,4.742,6.631,6.96
557,0.777,37.513,12.329,33.873,27.942,4.783,6.59,6.96
558,0.767,37.312,12.344,33.873,27.945,4.742,6.59,6.878
559,0.757,37.454,12.376,33.882,27.948,4.783,6.631,7.0
560,0.757,37.561,12.298,33.882,27.949,4.783,6.55,7.041
561,0.751,37.601,12.324,33.873,27.952,4.783,6.549,7.001
562,0.754,37.304,12.34,33.882,27.949,4.783,6.63,7.001
563,0.738,37.425,12.321,33.873,27.945,4.824,6.631,7.001
564,0.741,37.522,12.364,33.863,27.945,4.783,6.631,7.041
565,0.747,37.466,12.313,33.892,27.952,4.783,6.59,7.082
566,0.747,37.322,12.325,33.883,27.945,4.824,6.631,7.042
567,0.744,37.454,12.305,33.873,27.952,4.824,6.59,7.042
568,0.738,37.561,12.383,33.873,27.949,4.824,6.631,7.042
569,0.747,37.131,12.388,33.873,27.952,4.824,6.59,7.082
570,0.734,37.203,12.275,33.863,27.945,4.783,6.549,7.002
571,0.734,37.328,12.32,33.815,27.945,4.742,6.508,6.96
572,0.751,37.406,12.305,33.834,27.935,4.742,6.508,6.919
573,0.764,37.139,12.332,33.824,27.935,4.661,6.467,6.878
574,0.77,37.27,12.36,33.853,27.941,4.741,6.507,6.918
575,0.787,37.387,12.333,33.863,27.948,4.783,6.549,6.919
576,0.78,37.484,12.352,33.863,27.949,4.783,6.549,6.959
577,0.78,37.216,12.348,33.873,27.955,4.864,6.549,6.919
578,0.764,37.367,12.372,33.882,27.956,4.865,6.59,6.959
579,0.757,37.474,12.368,33.863,27.956,4.906,6.59,7.0
580,0.764,37.542,12.282,33.873,27.945,4.906,6.549,6.96
581,0.757,37.131,12.316,33.854,27.955,4.865,6.63,6.96
582,0.761,37.241,12.332,33.853,27.945,4.865,6.509,7.0
583,0.748,37.377,12.34,33.853,27.955,4.865,6.549,6.96
584,0.751,37.436,12.348,33.863,27.952,4.906,6.549,6.96
585,0.728,37.177,12.337,33.853,27.956,4.906,6.59,6.919
586,0.725,37.328,12.337,33.853,27.952,4.784,6.509,6.959
587,0.741,37.435,12.305,33.844,27.945,4.905,6.549,6.96
588,0.744,37.455,12.399,33.844,27.952,4.906,6.508,6.878
589,0.744,37.101,12.372,33.834,27.949,4.865,6.427,6.796
590,0.741,37.222,12.321,33.834,27.952,4.906,6.466,6.877
591,0.754,37.329,12.297,33.824,27.952,4.865,6.507,6.918
592,0.751,37.32,12.305,33.834,27.952,4.824,6.467,6.878
593,0.757,37.147,12.34,33.824,27.949,4.865,6.467,6.877
594,0.748,37.28,12.36,33.815,27.949,4.824,6.426,6.837
595,0.76,37.387,12.333,33.815,27.952,4.783,6.426,6.755
596,0.77,37.091,12.321,33.824,27.956,4.824,6.426,6.836
597,0.78,37.183,12.383,33.824,27.962,4.905,6.507,6.755
598,0.764,37.309,12.407,33.844,27.97,4.987,6.508,6.917
599,0.757,37.378,12.411,33.834,27.966,4.988,6.508,7.0
600,0.754,37.014,12.302,33.834,27.956,4.948,6.508,7.001
601,0.748,37.144,12.297,33.805,27.952,4.866,6.427,6.96
602,0.741,37.261,12.321,33.786,27.949,4.824,6.426,6.878
603,0.731,37.339,12.325,33.786,27.952,4.865,6.466,6.877
604,0.731,37.061,12.364,33.776,27.949,4.865,6.386,6.877
605,0.715,37.183,12.341,33.795,27.949,4.784,6.466,6.959
606,0.715,37.309,12.341,33.786,27.945,4.783,6.426,6.797
607,0.731,37.387,12.329,33.786,27.945,4.824,6.385,6.877
608,0.744,36.976,12.36,33.766,27.942,4.824,6.425,6.796
609,0.741,37.115,12.403,33.766,27.945,4.824,6.466,6.714
610,0.744,37.232,12.329,33.757,27.942,4.743,6.386,6.754
611,0.76,37.281,12.333,33.785,27.942,4.783,6.425,6.714
612,0.748,36.917,12.301,33.757,27.945,4.742,6.426,6.754
613,0.754,37.076,12.321,33.766,27.945,4.783,6.466,6.754
614,0.761,37.183,12.356,33.757,27.942,4.783,6.426,6.754
615,0.764,37.213,12.329,33.766,27.948,4.783,6.466,6.754
616,0.767,36.916,12.333,33.766,27.952,4.742,6.467,6.673
617,0.757,37.038,12.317,33.738,27.949,4.864,6.467,6.753
618,0.754,37.164,12.371,33.766,27.949,4.865,6.467,6.754
619,0.738,37.213,12.368,33.757,27.949,4.865,6.507,6.754
620,0.741,36.983,12.31,33.766,27.952,4.784,6.508,6.754
621,0.741,37.125,12.297,33.757,27.949,4.783,6.549,6.836
622,0.725,37.222,12.328,33.757,27.949,4.864,6.468,6.755
623,0.721,36.84,12.329,33.728,27.949,4.784,6.507,6.714
624,0.718,36.903,12.34,33.718,27.942,4.783,6.427,6.672
625,0.718,37.028,12.348,33.737,27.938,4.783,6.344,6.631
626,0.734,37.154,12.313,33.718,27.941,4.783,6.384,6.672
627,0.734,36.753,12.317,33.737,27.945,4.702,6.385,6.794
628,0.741,36.892,12.379,33.747,27.952,4.823,6.385,6.633
629,0.747,37.028,12.411,33.737,27.949,4.865,6.466,6.753
630,0.754,37.087,12.361,33.747,27.945,4.865,6.467,6.754
631,0.757,36.762,12.341,33.756,27.948,4.946,6.507,6.836
632,0.751,36.912,12.344,33.747,27.955,4.907,6.467,6.837
633,0.754,37.047,12.352,33.747,27.952,4.906,6.548,6.877
634,0.767,37.097,12.345,33.728,27.956,4.987,6.468,6.837
635,0.764,36.771,12.356,33.718,27.952,4.866,6.467,6.877
636,0.757,36.931,12.348,33.747,27.952,4.906,6.467,6.918
637,0.767,37.029,12.329,33.747,27.952,4.906,6.589,6.878
638,0.754,37.097,12.379,33.728,27.952,4.947,6.509,6.877
639,0.754,36.733,12.431,33.708,27.956,4.907,6.508,6.837
640,0.761,36.873,12.384,33.727,27.956,4.906,6.589,6.877
641,0.744,36.99,12.345,33.699,27.952,4.865,6.59,6.837
642,0.741,37.02,12.376,33.718,27.949,4.865,6.631,6.877
643,0.728,36.675,12.341,33.699,27.955,4.865,6.631,6.918
644,0.725,36.815,12.325,33.698,27.952,4.824,6.631,6.878
645,0.721,36.941,12.387,33.698,27.949,4.905,6.59,6.959
646,0.724,37.048,12.337,33.698,27.952,4.825,6.671,6.878
647,0.741,36.665,12.305,33.708,27.949,4.824,6.631,6.959
648,0.744,36.815,12.348,33.699,27.952,4.865,6.631,6.96
649,0.754,36.912,12.376,33.727,27.959,4.906,6.631,6.96
650,0.761,36.741,12.368,33.728,27.959,4.987,6.672,6.919
651,0.764,36.825,12.364,33.737,27.959,4.988,6.753,7.081
652,0.754,36.951,12.376,33.718,27.956,4.988,6.795,7.083
653,0.751,37.019,12.345,33.708,27.956,4.907,6.755,7.083
654,0.748,36.387,12.348,33.67,27.956,4.865,6.754,7.083
655,0.738,36.496,12.333,33.669,27.945,4.865,6.673,6.961
656,0.751,36.631,12.313,33.66,27.948,4.824,6.631,6.96
657,0.754,36.719,12.317,33.641,27.949,4.783,6.631,6.919
658,0.744,36.518,12.336,33.65,27.945,4.783,6.59,6.919
659,0.734,36.65,12.391,33.641,27.938,4.742,6.549,6.796
660,0.734,36.767,12.314,33.64,27.941,4.742,6.549,6.877
661,0.728,36.864,12.352,33.66,27.948,4.742,6.549,6.837
662,0.731,36.443,12.368,33.641,27.945,4.823,6.59,6.796
663,0.728,36.592,12.356,33.64,27.945,4.743,6.631,6.836
664,0.734,36.709,12.345,33.64,27.945,4.742,6.59,6.877
665,0.725,36.777,12.376,33.64,27.948,4.823,6.549,6.877
666,0.724,36.423,12.36,33.65,27.949,4.865,6.59,6.877
667,0.728,36.592,12.321,33.641,27.952,4.784,6.631,6.918
668,0.731,36.699,12.344,33.64,27.949,4.864,6.631,6.837
669,0.741,36.719,12.395,33.631,27.949,4.865,6.55,6.877
670,0.731,36.509,12.353,33.64,27.945,4.824,6.59,6.959
671,0.747,36.66,12.329,33.64,27.945,4.824,6.631,6.96
672,0.757,36.757,12.34,33.631,27.948,4.824,6.631,7.0
673,0.757,36.979,12.352,33.621,27.952,4.824,6.59,6.919
674,0.751,36.425,12.341,33.631,27.949,4.824,6.631,6.919
675,0.751,36.534,12.329,33.602,27.942,4.783,6.59,6.837
676,0.754,36.641,12.321,33.592,27.938,4.783,6.509,6.877
677,0.757,36.345,12.313,33.592,27.938,4.742,6.467,6.837
678,0.751,36.409,12.34,33.602,27.941,4.823,6.386,6.837
679,0.741,36.534,12.36,33.63,27.942,4.824,6.547,6.958
680,0.747,36.631,12.337,33.631,27.952,4.865,6.63,6.96
681,0.734,36.268,12.29,33.612,27.952,4.865,6.631,7.041
682,0.734,36.379,12.34,33.64,27.949,4.906,6.631,6.96
683,0.728,36.534,12.352,33.612,27.955,4.987,6.631,7.041
684,0.734,36.622,12.352,33.602,27.956,4.907,6.631,7.001
685,0.731,36.354,12.387,33.621,27.952,4.865,6.631,7.123
686,0.721,36.505,12.357,33.64,27.949,4.987,6.672,7.083
687,0.721,36.621,12.341,33.602,27.949,4.907,6.672,7.083
688,0.734,36.69,12.348,33.592,27.952,4.947,6.631,7.083
689,0.744,36.211,12.384,33.602,27.945,4.947,6.55,7.083
690,0.744,36.331,12.345,33.592,27.945,4.866,6.59,7.123
691,0.747,36.466,12.329,33.592,27.952,4.906,6.509,7.124
692,0.744,36.506,12.348,33.582,27.956,4.906,6.63,7.124
693,0.751,36.248,12.352,33.573,27.959,4.825,6.631,7.124
694,0.751,36.37,12.36,33.582,27.949,4.905,6.509,7.124
695,0.767,36.496,12.352,33.592,27.949,4.825,6.549,7.165
696,0.754,36.535,12.348,33.582,27.949,4.865,6.59,7.124
697,0.774,36.718,12.344,33.582,27.949,4.865,6.549,7.165
698,0.777,36.844,12.352,33.573,27.952,4.865,6.63,7.124
699,0.767,36.98,12.403,33.582,27.949,4.906,6.59,7.124
700,0.757,37.25,12.357,33.602,27.959,4.906,6.509,7.205
701,0.751,36.025,12.337,33.602,27.959,5.028,6.67,7.165
702,0.744,36.166,12.364,33.602,27.963,5.03,6.713,7.206
703,0.734,36.263,12.345,33.592,27.963,4.989,6.713,7.287
704,0.738,36.216,12.372,33.592,27.963,5.029,6.672,7.288
705,0.721,36.293,12.345,33.573,27.952,4.989,6.631,7.288
706,0.711,36.428,12.325,33.563,27.949,4.907,6.55,7.207
707,0.728,36.515,12.286,33.563,27.949,4.906,6.549,7.165
708,0.721,36.065,12.367,33.534,27.949,4.906,6.468,7.124
709,0.741,36.186,12.388,33.534,27.945,4.865,6.467,7.043
710,0.734,36.302,12.337,33.524,27.945,4.865,6.467,7.042
711,0.734,36.38,12.298,33.515,27.938,4.824,6.467,7.042
712,0.738,36.026,12.367,33.515,27.941,4.865,6.386,7.042
713,0.738,36.166,12.345,33.534,27.945,4.865,6.466,7.001
714,0.741,36.283,12.341,33.524,27.942,4.824,6.345,6.879
715,0.747,36.37,12.383,33.505,27.945,4.824,6.384,6.959
716,0.747,36.016,12.345,33.553,27.948,4.865,6.385,6.96
717,0.751,36.147,12.325,33.525,27.945,4.906,6.425,7.0
718,0.738,36.263,12.356,33.515,27.942,4.825,6.385,7.041
719,0.734,36.341,12.399,33.505,27.945,4.865,6.466,7.001
720,0.731,36.073,12.365,33.514,27.952,4.865,6.507,7.041
721,0.721,36.224,12.356,33.524,27.949,4.906,6.549,7.042
722,0.731,36.331,12.368,33.524,27.955,4.906,6.508,7.082
723,0.725,36.39,12.349,33.515,27.952,4.947,6.549,7.123
724,0.721,35.681,12.313,33.495,27.949,4.907,6.468,7.165
725,0.718,35.798,12.36,33.514,27.952,4.906,6.467,7.246
726,0.721,35.905,12.263,33.505,27.949,4.906,6.548,7.206
727,0.721,35.954,12.316,33.505,27.949,4.865,6.508,7.247
728,0.731,36.184,12.313,33.476,27.938,4.906,6.508,7.206
729,0.741,36.321,12.368,33.466,27.941,4.825,6.427,7.247
730,0.751,36.437,12.403,33.466,27.945,4.824,6.385,7.206
731,0.754,35.892,12.396,33.485,27.945,4.783,6.385,7.206
732,0.751,35.781,12.4,33.495,27.942,4.864,6.344,7.206
733,0.754,35.943,12.345,33.476,27.948,4.824,6.466,7.247
734,0.751,36.041,12.344,33.476,27.952,4.865,6.548,7.247
735,0.767,36.08,12.364,33.495,27.959,4.946,6.468,7.288
736,0.761,36.215,12.298,33.495,27.952,4.988,6.548,7.329
737,0.754,36.35,12.313,33.486,27.956,4.948,6.59,7.37
738,0.748,36.447,12.34,33.486,27.956,4.907,6.549,7.33
739,0.754,35.729,12.391,33.486,27.959,4.987,6.549,7.329
740,0.744,35.875,12.384,33.476,27.952,4.948,6.63,7.329
741,0.741,36.011,12.368,33.476,27.952,4.907,6.631,7.37
742,0.741,36.089,12.415,33.485,27.952,4.947,6.55,7.289
743,0.738,35.908,12.357,33.476,27.956,4.907,6.549,7.288
744,0.734,36.05,12.325,33.447,27.956,4.906,6.549,7.247
745,0.731,36.176,12.391,33.456,27.956,4.906,6.549,7.288
746,0.734,36.235,12.321,33.457,27.952,4.906,6.468,7.288
747,0.734,35.852,12.305,33.466,27.952,4.947,6.548,7.247
748,0.747,35.982,12.317,33.466,27.949,4.947,6.508,7.288
749,0.757,36.089,12.383,33.447,27.959,4.907,6.549,7.247
750,0.757,36.138,12.384,33.466,27.956,4.947,6.508,7.206
751,0.761,35.668,12.384,33.457,27.952,4.907,6.508,7.206
752,0.754,35.827,12.368,33.447,27.956,4.987,6.508,7.165
753,0.757,35.963,12.364,33.447,27.959,4.866,6.508,7.246
754,0.774,35.993,12.333,33.456,27.952,4.906,6.467,7.166
755,0.777,35.878,12.391,33.457,27.959,4.947,6.548,7.165
756,0.774,36.011,12.318,33.457,27.966,4.988,6.63,7.206
757,0.771,36.118,12.325,33.457,27.97,5.029,6.631,7.247
758,0.764,35.764,12.325,33.466,27.956,4.989,6.631,7.247
759,0.757,35.674,12.352,33.437,27.956,4.948,6.59,7.166
760,0.754,35.798,12.38,33.418,27.956,4.907,6.549,7.124
761,0.751,35.905,12.364,33.408,27.949,4.825,6.508,7.124
762,0.748,35.628,12.391,33.408,27.942,4.865,6.508,7.083
763,0.744,35.75,12.372,33.446,27.948,4.865,6.467,6.961
764,0.738,35.895,12.306,33.408,27.945,4.865,6.467,7.0
765,0.721,35.983,12.379,33.399,27.945,4.824,6.467,7.041
766,0.724,35.59,12.321,33.398,27.945,4.743,6.426,6.96
767,0.741,35.749,12.313,33.418,27.945,4.864,6.426,6.919
768,0.747,35.856,12.301,33.399,27.945,4.824,6.426,6.959
769,0.754,35.934,12.336,33.389,27.948,4.865,6.385,6.919
770,0.754,35.59,12.368,33.379,27.945,4.824,6.385,6.959
771,0.77,35.749,12.329,33.398,27.948,4.824,6.425,6.96
772,0.754,35.866,12.364,33.389,27.942,4.824,6.385,7.0
773,0.787,35.934,12.325,33.446,27.945,4.824,6.466,6.96
774,0.79,35.561,12.325,33.399,27.942,4.865,6.426,6.96
775,0.79,35.701,12.391,33.379,27.952,4.865,6.426,6.919
776,0.8,35.827,12.337,33.398,27.945,4.824,6.426,7.0
777,0.807,35.905,12.348,33.389,27.952,4.865,6.426,6.96
778,0.803,35.676,12.317,33.389,27.952,4.784,6.426,6.96
779,0.794,35.817,12.364,33.37,27.949,4.824,6.385,7.0
780,0.803,35.895,12.36,33.379,27.949,4.783,6.385,6.96
781,0.787,35.925,12.337,33.36,27.949,4.824,6.425,6.919
782,0.797,35.561,12.344,33.341,27.938,4.743,6.385,6.959
783,0.794,35.701,12.266,33.35,27.938,4.742,6.303,6.878
784,0.803,35.818,12.332,33.369,27.941,4.783,6.302,6.877
785,0.807,35.646,12.403,33.379,27.948,4.824,6.302,6.959
786,0.816,35.606,12.345,33.379,27.955,4.865,6.425,6.919
787,0.816,35.74,12.348,33.379,27.949,4.865,6.426,7.0
788,0.829,35.856,12.321,33.369,27.949,4.865,6.507,7.041
789,0.849,35.57,12.375,33.369,27.955,4.906,6.467,7.042
790,0.833,35.682,12.38,33.379,27.952,4.906,6.548,7.082
791,0.846,35.808,12.364,33.369,27.952,4.906,6.549,7.083
792,0.856,35.886,12.388,33.379,27.952,4.865,6.59,7.042
793,0.869,35.484,12.357,33.389,27.956,4.906,6.631,7.082
794,0.869,35.614,12.333,33.37,27.956,4.865,6.631,7.083
795,0.879,35.73,12.352,33.36,27.959,4.865,6.631,7.083
796,0.866,35.818,12.294,33.36,27.952,4.865,6.631,7.042
797,0.879,35.454,12.305,33.36,27.956,4.824,6.631,7.001
798,0.866,35.614,12.344,33.36,27.949,4.946,6.672,6.96
799,0.859,35.721,12.372,33.36,27.955,4.907,6.713,7.041
800,0.866,35.779,12.388,33.35,27.945,4.906,6.632,7.082
801,0.853,35.444,12.337,33.35,27.945,4.825,6.672,7.042
802,0.856,35.594,12.376,33.331,27.955,4.824,6.631,7.123
803,0.853,35.701,12.329,33.35,27.952,4.865,6.712,7.043
804,0.859,35.77,12.333,33.34,27.956,4.865,6.754,7.082
805,0.853,35.406,12.387,33.34,27.949,4.865,6.754,7.083
806,0.849,35.556,12.29,33.34,27.952,4.824,6.714,7.042
807,0.859,35.701,12.348,33.34,27.952,4.865,6.713,7.164
808,0.875,35.731,12.352,33.369,27.956,4.865,6.754,7.165
809,0.879,35.511,12.419,33.36,27.966,4.946,6.836,7.206
810,0.879,35.624,12.423,33.36,27.959,4.988,6.877,7.287
811,0.889,35.73,12.345,33.36,27.956,4.907,6.918,7.288
812,0.872,35.501,12.38,33.36,27.956,4.947,6.878,7.288
813,0.866,35.403,12.368,33.321,27.952,4.988,6.796,7.247
814,0.879,35.527,12.333,33.321,27.952,4.866,6.755,7.206
815,0.889,35.605,12.36,33.283,27.949,4.865,6.714,7.165
816,0.895,35.299,12.309,33.292,27.949,4.784,6.713,7.084
817,0.899,35.411,12.305,33.292,27.945,4.783,6.672,7.123
818,0.899,35.537,12.309,33.302,27.942,4.742,6.631,7.165
819,0.873,35.634,12.368,33.302,27.948,4.823,6.631,7.084
820,0.869,35.807,12.368,33.302,27.938,4.824,6.672,7.042
821,0.856,35.953,12.349,33.292,27.948,4.824,6.713,7.123
822,0.853,36.089,12.387,33.302,27.945,4.865,6.754,7.205
823,0.84,36.176,12.36,33.311,27.948,4.824,6.714,7.125
824,0.839,35.017,12.333,33.292,27.949,4.865,6.713,7.083
825,0.826,35.168,12.395,33.292,27.949,4.784,6.754,7.164
826,0.839,35.285,12.306,33.321,27.949,4.824,6.754,7.084
827,0.846,35.363,12.297,33.302,27.942,4.865,6.795,7.002
828,0.866,35.364,12.317,33.311,27.952,4.865,6.755,7.082
829,0.872,35.507,12.356,33.302,27.956,4.784,6.876,7.083
830,0.885,35.624,12.411,33.302,27.952,4.783,6.796,7.083
831,0.872,35.673,12.337,33.273,27.949,4.824,6.755,7.123
832,0.872,35.204,12.368,33.292,27.952,4.865,6.795,7.083
833,0.879,35.371,12.345,33.292,27.945,4.824,6.795,7.123
834,0.872,35.469,12.344,33.292,27.945,4.865,6.795,7.124
835,0.885,35.48,12.368,33.244,27.942,4.743,6.795,7.083
836,0.892,35.221,12.294,33.272,27.945,4.783,6.795,7.002
837,0.895,35.391,12.305,33.253,27.942,4.742,6.714,7.001
838,0.869,35.517,12.321,33.263,27.948,4.783,6.794,6.96
839,0.876,35.423,12.372,33.282,27.949,4.783,6.877,7.041
840,0.885,35.316,12.353,33.273,27.945,4.864,6.837,7.042
841,0.882,35.449,12.372,33.282,27.955,4.865,6.958,7.082
842,0.872,35.566,12.36,33.282,27.952,4.865,6.919,7.083
843,0.859,35.174,12.372,33.282,27.956,4.865,6.959,7.164
844,0.83,35.247,12.345,33.292,27.956,4.946,7.041,7.124
845,0.813,35.391,12.387,33.292,27.952,4.866,7.042,7.205
846,0.816,35.488,12.329,33.282,27.952,4.946,7.082,7.125
847,0.794,35.183,12.34,33.292,27.956,4.866,7.042,7.083
848,0.79,35.323,12.337,33.273,27.956,4.824,7.001,7.164
849,0.793,35.449,12.348,33.273,27.952,4.865,7.041,7.084
850,0.784,35.518,12.372,33.282,27.952,4.824,7.082,7.123
851,0.78,35.116,12.337,33.273,27.952,4.824,7.002,7.002
852,0.777,35.265,12.376,33.253,27.952,4.824,7.001,7.041
853,0.771,35.382,12.376,33.282,27.952,4.865,7.041,7.042
854,0.751,35.45,12.317,33.263,27.949,4.865,7.001,7.042
855,0.761,35.125,12.391,33.244,27.952,4.824,6.96,6.96
856,0.754,35.275,12.321,33.253,27.949,4.865,6.96,7.041
857,0.748,35.411,12.313,33.253,27.955,4.784,7.041,7.001
858,0.741,35.45,12.336,33.253,27.949,4.864,6.92,7.001
859,0.744,35.173,12.348,33.244,27.949,4.824,6.919,7.001
860,0.744,35.314,12.395,33.244,27.952,4.865,6.959,6.96
861,0.738,35.459,12.322,33.263,27.952,4.824,6.96,7.0
862,0.734,35.499,12.364,33.263,27.959,4.946,6.96,7.001
863,0.718,35.202,12.352,33.33,27.959,4.988,7.041,7.001
864,0.718,35.352,12.325,33.264,27.959,4.907,7.042,7.082
865,0.702,35.44,12.383,33.253,27.959,4.865,7.042,7.205
866,0.695,35.316,12.329,33.244,27.952,4.824,7.001,7.165
867,0.695,35.133,12.333,33.253,27.949,4.783,6.919,7.165
868,0.701,35.256,12.317,33.224,27.952,4.824,6.919,7.043
869,0.714,35.353,12.356,33.224,27.952,4.743,6.837,7.082
870,0.724,35.009,12.403,33.215,27.945,4.783,6.796,7.042
871,0.734,35.091,12.376,33.215,27.938,4.742,6.795,7.082
872,0.728,35.217,12.368,33.205,27.945,4.701,6.795,7.083
873,0.734,35.324,12.356,33.224,27.945,4.66,6.755,7.042
874,0.741,34.999,12.313,33.215,27.942,4.741,6.714,7.001
875,0.728,35.139,12.34,33.215,27.942,4.783,6.754,7.082
876,0.715,35.265,12.309,33.215,27.948,4.783,6.714,7.042
877,0.721,35.363,12.34,33.215,27.945,4.824,6.754,7.082
878,0.724,35.009,12.348,33.224,27.942,4.783,6.714,7.164
879,0.721,35.149,12.391,33.224,27.945,4.824,6.754,7.124
880,0.715,35.285,12.388,33.215,27.945,4.783,6.754,7.165
881,0.702,35.363,12.36,33.215,27.948,4.824,6.836,7.124
882,0.695,34.98,12.364,33.215,27.952,4.824,6.714,7.124
883,0.695,35.139,12.345,33.224,27.949,4.824,6.713,7.287
884,0.692,35.285,12.309,33.224,27.952,4.865,6.754,7.166
885,0.679,35.296,12.344,33.215,27.949,4.824,6.754,7.206
886,0.682,34.941,12.313,33.205,27.949,4.743,6.714,7.247
887,0.685,35.091,12.286,33.195,27.942,4.701,6.632,7.125
888,0.695,35.217,12.34,33.195,27.942,4.62,6.631,7.124
889,0.711,35.247,12.333,33.176,27.945,4.659,6.59,7.083
890,0.715,34.95,12.379,33.205,27.945,4.741,6.671,7.123
891,0.728,35.11,12.349,33.205,27.952,4.823,6.631,7.165
892,0.734,35.217,12.384,33.205,27.952,4.824,6.631,7.165
893,0.734,35.266,12.349,33.205,27.949,4.824,6.672,7.124
894,0.728,35.104,12.329,33.214,27.959,4.865,6.713,7.165
895,0.731,35.246,12.356,33.224,27.956,4.824,6.672,7.165
896,0.738,35.353,12.274,33.215,27.952,4.905,6.713,7.165
897,0.734,34.817,12.324,33.215,27.956,4.825,6.713,7.206
898,0.721,34.869,12.336,33.205,27.952,4.865,6.672,7.165
899,0.721,35.004,12.387,33.205,27.956,4.865,6.631,7.246
900,0.715,35.101,12.38,33.186,27.956,4.865,6.672,7.166
901,0.724,34.91,12.38,33.205,27.952,4.824,6.631,7.165
902,0.721,35.033,12.38,33.195,27.945,4.824,6.631,7.206
903,0.715,35.178,12.364,33.186,27.952,4.865,6.672,7.165
904,0.702,35.275,12.337,33.195,27.956,4.824,6.591,7.246
905,0.695,34.826,12.356,33.186,27.952,4.905,6.631,7.206
906,0.708,34.975,12.282,33.195,27.956,4.865,6.631,7.206
907,0.708,35.12,12.305,33.186,27.949,4.824,6.672,7.125
908,0.715,35.179,12.325,33.176,27.952,4.865,6.713,7.124
909,0.721,34.623,12.391,33.185,27.949,4.865,6.672,7.083
910,0.705,34.752,12.392,33.185,27.952,4.784,6.713,7.164
911,0.718,34.897,12.361,33.166,27.949,4.824,6.754,7.084
912,0.721,34.985,12.368,33.214,27.955,4.905,6.754,7.042
913,0.702,34.909,12.356,33.215,27.966,4.865,6.795,7.164
914,0.682,35.043,12.337,33.215,27.963,4.946,6.795,7.206
915,0.675,35.159,12.379,33.186,27.963,4.907,6.877,7.206
916,0.656,35.179,12.325,33.176,27.959,4.947,6.796,7.165
917,0.655,34.806,12.329,33.166,27.956,4.947,6.836,7.084
918,0.659,34.936,12.336,33.147,27.952,4.825,6.755,7.083
919,0.656,35.033,12.372,33.166,27.956,4.824,6.673,7.083
920,0.652,35.13,12.349,33.137,27.945,4.743,6.672,6.961
921,0.649,34.767,12.337,33.156,27.948,4.783,6.713,7.0
922,0.672,34.897,12.379,33.128,27.952,4.783,6.551,7.001
923,0.672,35.014,12.337,33.127,27.952,4.783,6.63,6.96
924,0.695,34.746,12.313,33.108,27.945,4.783,6.631,6.919
925,0.718,34.82,12.375,33.137,27.942,4.783,6.59,6.878
926,0.763,34.955,12.314,33.127,27.942,4.783,6.59,6.877
927,0.803,35.053,12.329,33.147,27.948,4.742,6.59,6.959
928,0.865,34.651,12.329,33.108,27.945,4.783,6.631,6.838
929,0.941,34.781,12.379,33.137,27.942,4.783,6.55,6.837
930,0.99,34.926,12.399,33.127,27.945,4.742,6.508,6.877
931,1.039,35.014,12.361,33.147,27.942,4.864,6.549,6.918
932,1.089,34.631,12.352,33.128,27.945,4.824,6.508,6.878
933,1.141,34.79,12.36,33.118,27.948,4.824,6.589,6.837
934,1.168,34.936,12.356,33.127,27.955,4.783,6.631,6.877
935,1.21,34.985,12.384,33.108,27.949,4.742,6.509,6.918
936,1.292,34.746,12.306,33.137,27.952,4.823,6.467,6.878
937,1.377,34.887,12.321,33.118,27.949,4.743,6.548,6.959
938,1.398,35.014,12.325,33.127,27.955,4.823,6.508,6.96
939,1.427,35.063,12.372,33.118,27.952,4.783,6.508,6.878
940,1.441,34.574,12.314,33.108,27.942,4.783,6.508,7.0
941,1.441,34.742,12.321,33.098,27.945,4.742,6.427,6.96
942,1.493,34.849,12.352,33.07,27.942,4.742,6.344,7.0
943,1.545,34.927,12.329,33.108,27.942,4.783,6.384,6.96
944,1.604,34.832,12.329,33.089,27.945,4.783,6.385,7.0
945,1.625,34.955,12.379,33.117,27.945,4.783,6.344,7.082
946,1.651,35.081,12.317,33.127,27.952,4.824,6.466,7.123
947,1.68,35.313,12.336,33.137,27.956,4.865,6.507,7.287
948,1.72,34.644,12.325,33.127,27.952,4.824,6.467,7.166
949,1.739,34.752,12.34,33.127,27.956,4.783,6.507,7.287
950,1.746,34.868,12.383,33.137,27.956,4.864,6.427,7.288
951,1.74,34.591,12.36,33.137,27.959,4.906,6.466,7.41
952,1.723,34.665,12.391,33.108,27.963,4.906,6.467,7.493
953,1.691,34.82,12.337,33.118,27.952,4.825,6.467,7.656
954,1.616,34.927,12.337,33.127,27.956,4.865,6.467,7.861
955,1.547,34.582,12.379,33.099,27.956,4.865,6.467,8.026
956,1.494,34.742,12.302,33.118,27.959,4.865,6.426,8.271
957,1.415,34.878,12.336,33.099,27.949,4.906,6.466,8.721
958,1.31,34.966,12.333,33.108,27.955,4.865,6.426,9.132
959,1.228,34.487,12.399,33.108,27.956,4.865,6.385,9.624
960,1.156,34.626,12.392,33.098,27.956,4.824,6.466,10.198
961,1.096,34.79,12.388,33.098,27.956,4.905,6.426,10.692
962,1.04,34.85,12.396,33.098,27.952,4.865,6.426,11.266
963,0.978,34.524,12.364,33.118,27.949,4.865,6.426,11.678
964,0.942,34.674,12.325,33.099,27.952,4.824,6.344,12.13
965,0.909,34.8,12.387,33.108,27.956,4.824,6.384,12.541
966,0.899,34.869,12.318,33.118,27.949,4.824,6.425,12.87
967,0.863,34.553,12.325,33.118,27.955,4.905,6.466,13.036
968,0.846,34.694,12.344,33.127,27.956,4.825,6.467,13.2
969,0.82,34.829,12.395,33.137,27.962,4.865,6.467,13.527
970,0.807,34.84,12.4,33.118,27.963,4.946,6.507,13.571
971,0.8,34.582,12.357,33.127,27.963,4.947,6.508,13.653
972,0.794,34.694,12.384,33.108,27.956,4.866,6.467,13.694
973,0.793,34.839,12.341,33.098,27.952,4.865,6.426,13.735
974,0.79,35.166,12.301,33.06,27.942,4.865,6.426,13.695
975,0.806,34.518,12.364,33.079,27.948,4.824,6.426,13.735
976,0.807,34.645,12.29,33.05,27.945,4.702,6.466,13.898
977,0.807,34.762,12.313,33.069,27.948,4.742,6.426,14.063
978,0.803,34.542,12.352,33.06,27.949,4.823,6.385,14.349
979,0.823,34.588,12.395,33.05,27.949,4.783,6.385,14.677
980,0.807,34.723,12.392,33.06,27.945,4.742,6.344,14.924
981,0.807,34.839,12.376,33.069,27.945,4.823,6.466,15.13
982,0.8,34.428,12.395,33.06,27.942,4.824,6.386,15.376
983,0.8,34.587,12.357,33.069,27.945,4.865,6.385,15.501
984,0.813,34.723,12.329,33.069,27.942,4.743,6.385,15.705
985,0.803,34.82,12.368,33.06,27.945,4.783,6.425,15.829
986,0.8,34.485,12.306,33.079,27.952,4.783,6.426,15.871
987,0.8,34.645,12.297,33.089,27.949,4.824,6.385,15.831
988,0.813,34.771,12.297,33.07,27.952,4.783,6.425,15.83
989,0.82,34.849,12.36,33.069,27.952,4.783,6.385,15.749
990,0.826,34.419,12.388,33.05,27.952,4.783,6.385,15.585
991,0.82,34.577,12.38,33.069,27.956,4.824,6.385,15.421
992,0.81,34.694,12.376,33.06,27.949,4.865,6.507,15.176
993,0.81,34.772,12.353,33.069,27.949,4.824,6.467,14.97
994,0.797,34.408,12.298,33.06,27.949,4.905,6.467,14.724
995,0.8,34.568,12.371,33.04,27.938,4.825,6.467,14.518
996,0.797,34.694,12.29,33.031,27.941,4.743,6.386,14.191
997,0.8,34.753,12.281,33.031,27.942,4.742,6.466,13.984
998,0.787,34.466,12.336,33.05,27.945,4.742,6.304,13.738
999,0.78,34.626,12.395,33.04,27.948,4.742,6.425,13.573
1000,0.787,34.752,12.345,33.05,27.952,4.823,6.466,13.327
1001,0.774,34.964,12.376,33.069,27.949,4.905,6.467,13.162
1002,0.78,34.429,12.395,33.079,27.949,4.906,6.548,12.998
1003,0.774,34.587,12.368,33.06,27.952,4.906,6.508,12.793
1004,0.771,34.704,12.313,33.069,27.959,4.865,6.549,12.588
1005,0.754,34.427,12.368,33.069,27.959,4.906,6.549,12.423
1006,0.761,34.472,12.317,33.098,27.956,4.906,6.59,12.3
1007,0.77,34.626,12.332,33.07,27.959,4.906,6.59,12.054
1008,0.783,34.704,12.337,33.06,27.956,4.825,6.59,11.767
1009,0.777,34.264,12.368,33.06,27.952,4.905,6.631,11.683
1010,0.784,34.394,12.415,33.05,27.956,4.865,6.55,11.479
1011,0.787,34.539,12.349,33.069,27.956,4.906,6.549,11.355
1012,0.793,34.617,12.372,33.05,27.956,4.947,6.59,11.232
1013,0.797,34.272,12.345,33.06,27.959,4.866,6.59,10.946
1014,0.794,34.413,12.36,33.05,27.952,4.865,6.549,10.902
1015,0.793,34.539,12.376,33.04,27.962,4.906,6.59,10.699
1016,0.8,34.636,12.325,33.059,27.956,4.865,6.631,10.575
1017,0.787,34.301,12.336,33.04,27.952,4.906,6.55,10.411
1018,0.793,34.471,12.348,33.059,27.956,4.865,6.508,10.287
1019,0.78,34.587,12.384,33.031,27.952,4.906,6.589,10.123
1020,0.787,34.665,12.368,33.031,27.952,4.906,6.59,10.122
1021,0.784,34.426,12.333,33.04,27.949,4.865,6.549,9.919
1022,0.79,34.558,12.352,33.05,27.952,4.865,6.63,9.835
1023,0.78,34.713,12.321,33.021,27.956,4.824,6.509,9.753
1024,0.777,34.753,12.309,33.031,27.956,4.865,6.549,9.712
1025,0.774,34.255,12.375,33.05,27.952,4.824,6.508,9.63
1026,0.774,34.432,12.317,33.06,27.962,4.905,6.508,9.588
1027,0.761,34.549,12.368,33.06,27.963,4.987,6.63,9.588
1028,0.78,34.569,12.325,33.06,27.963,4.988,6.753,9.547
1029,0.78,34.387,12.407,33.04,27.956,4.948,6.673,9.547
1030,0.78,34.539,12.384,33.031,27.962,4.947,6.672,9.506
1031,0.797,34.627,12.337,33.031,27.956,4.907,6.55,9.465
1032,0.803,34.263,12.34,33.011,27.952,4.865,6.508,9.302
1033,0.794,34.221,12.333,33.021,27.952,4.702,6.508,9.341
1034,0.793,34.355,12.313,33.002,27.949,4.782,6.508,9.26
1035,0.803,34.462,12.352,32.992,27.949,4.742,6.427,9.178
1036,0.8,34.127,12.305,33.011,27.945,4.742,6.507,9.096
1037,0.787,34.239,12.305,33.002,27.948,4.783,6.467,9.095
1038,0.78,34.374,12.34,33.011,27.949,4.742,6.426,9.014
1039,0.777,34.491,12.36,32.992,27.955,4.823,6.385,8.972
1040,0.784,34.156,12.364,33.001,27.949,4.702,6.425,8.891
1041,0.78,34.335,12.341,33.002,27.945,4.742,6.466,8.849
1042,0.78,34.461,12.376,33.002,27.952,4.742,6.467,8.849
1043,0.767,34.539,12.341,32.973,27.949,4.783,6.426,8.767
1044,0.777,34.147,12.337,32.992,27.952,4.702,6.466,8.726
1045,0.78,34.325,12.368,33.001,27.952,4.823,6.426,8.726
1046,0.784,34.442,12.313,33.011,27.952,4.783,6.344,8.685
1047,0.787,34.52,12.321,33.002,27.952,4.783,6.343,8.522
1048,0.803,34.214,12.321,33.002,27.949,4.824,6.384,8.561
1049,0.803,34.355,12.372,33.011,27.952,4.783,6.385,8.521
1050,0.803,34.471,12.392,33.002,27.952,4.864,6.385,8.439
1051,0.813,34.54,12.337,32.992,27.956,4.824,6.344,8.479
1052,0.797,34.118,12.368,33.001,27.952,4.824,6.425,8.438
1053,0.803,34.239,12.333,33.002,27.952,4.824,6.385,8.397
1054,0.807,34.336,12.294,32.992,27.949,4.783,6.385,8.356
1055,0.803,34.385,12.367,32.973,27.949,4.742,6.344,8.275
1056,0.803,34.222,12.294,32.953,27.938,4.783,6.343,8.152
1057,0.81,34.355,12.317,32.963,27.941,4.742,6.303,8.11
1058,0.82,34.462,12.352,32.972,27.945,4.742,6.262,8.028
1059,0.803,34.213,12.391,32.982,27.945,4.783,6.262,7.987
1060,0.8,34.134,12.357,32.992,27.948,4.824,6.343,7.986
1061,0.803,34.306,12.372,32.982,27.955,4.824,6.425,8.027
1062,0.794,34.384,12.395,32.982,27.952,4.824,6.426,7.987
1063,0.787,34.155,12.372,33.001,27.956,4.824,6.385,7.946
1064,0.787,34.258,12.345,32.992,27.959,4.905,6.425,7.986
1065,0.784,34.394,12.376,33.011,27.956,4.906,6.385,7.986
1066,0.793,34.491,12.317,33.021,27.959,4.865,6.385,7.905
1067,0.787,34.031,12.332,32.983,27.956,4.865,6.344,7.904
1068,0.8,34.171,12.333,32.992,27.949,4.865,6.466,7.904
1069,0.803,34.306,12.344,32.992,27.955,4.824,6.386,7.782
1070,0.813,34.384,12.438,32.963,27.956,4.824,6.425,7.781
1071,0.813,34.04,12.353,32.992,27.952,4.865,6.385,7.74
1072,0.823,34.18,12.391,32.982,27.945,4.824,6.344,7.74
1073,0.82,34.326,12.349,32.973,27.948,4.824,6.343,7.699
1074,0.817,34.394,12.325,32.973,27.952,4.865,6.343,7.699
1075,0.826,34.117,12.387,32.973,27.956,4.865,6.343,7.74
1076,0.817,34.267,12.286,32.963,27.949,4.824,6.221,7.699
1077,0.813,34.394,12.317,32.953,27.949,4.783,6.261,7.658
1078,0.807,34.452,12.321,32.953,27.952,4.824,6.262,7.658
1079,0.81,34.089,12.348,32.963,27.952,4.783,6.262,7.617
1080,0.813,34.238,12.372,32.953,27.952,4.824,6.302,7.576
1081,0.823,34.384,12.368,32.953,27.952,4.783,6.343,7.575
1082,0.82,34.414,12.384,32.972,27.956,4.824,6.384,7.494
1083,0.817,33.964,12.368,32.982,27.959,4.946,6.385,7.616
1084,0.82,34.103,12.345,32.992,27.963,4.947,6.466,7.617
1085,0.8,34.181,12.376,32.973,27.959,4.988,6.467,7.657
1086,0.784,34.124,12.302,32.973,27.956,4.907,6.426,7.576
1087,0.797,34.114,12.289,32.944,27.956,4.865,6.385,7.535
1088,0.807,34.248,12.293,32.943,27.952,4.865,6.344,7.534
1089,0.803,34.336,12.36,32.943,27.956,4.784,6.384,7.494
1090,0.807,33.761,12.372,32.915,27.945,4.742,6.263,7.453
1091,0.816,33.88,12.329,32.914,27.948,4.823,6.302,7.371
1092,0.813,34.016,12.372,32.914,27.942,4.824,6.18,7.37
1093,0.816,34.123,12.349,32.914,27.945,4.702,6.22,7.289
1094,0.829,33.894,12.337,32.905,27.945,4.742,6.22,7.288
1095,0.836,34.025,12.344,32.905,27.942,4.742,6.18,7.247
1096,0.836,34.19,12.22,32.914,27.942,4.742,6.179,7.206
1097,0.839,34.268,12.3,32.914,27.952,4.742,6.139,7.206
1098,0.836,34.0,12.344,32.905,27.942,4.783,6.219,7.247
1099,0.826,34.142,12.348,32.934,27.955,4.702,6.22,7.166
1100,0.817,34.287,12.364,32.915,27.945,4.66,6.098,7.165
1101,0.8,34.365,12.313,32.924,27.948,4.7,6.178,7.206
1102,0.803,33.858,12.36,32.905,27.945,4.742,6.179,7.165
1103,0.787,34.035,12.345,32.924,27.948,4.742,6.139,7.124
1104,0.8,34.161,12.333,32.915,27.945,4.742,6.219,7.165
1105,0.79,34.191,12.379,32.914,27.945,4.783,6.18,7.246
1106,0.793,33.923,12.29,32.914,27.948,4.783,6.179,7.206
1107,0.79,34.074,12.317,32.924,27.952,4.783,6.22,7.206
1108,0.813,34.2,12.317,32.905,27.956,4.783,6.18,7.206
1109,0.816,34.211,12.364,32.934,27.952,4.783,6.179,7.165
1110,0.82,33.942,12.368,32.915,27.949,4.742,6.22,7.124
1111,0.826,34.093,12.306,32.924,27.949,4.742,6.22,7.165
1112,0.826,34.191,12.344,32.924,27.949,4.783,6.261,7.246
1113,0.817,34.0,12.321,32.915,27.942,4.742,6.302,7.247
1114,0.829,33.883,12.317,32.876,27.942,4.823,6.262,7.206
1115,0.83,34.035,12.375,32.885,27.938,4.621,6.18,7.165
1116,0.839,34.152,12.263,32.905,27.941,4.741,6.179,7.043
1117,0.852,33.827,12.316,32.895,27.945,4.701,6.179,7.164
1118,0.846,33.919,12.336,32.914,27.945,4.701,6.179,7.165
1119,0.833,34.055,12.403,32.914,27.948,4.742,6.261,7.165
1120,0.836,34.152,12.388,32.914,27.952,4.783,6.302,7.246
1121,0.83,33.798,12.353,32.943,27.956,4.864,6.343,7.247
1122,0.813,33.957,12.384,32.924,27.952,4.824,6.384,7.328
1123,0.823,34.055,12.357,32.915,27.952,4.824,6.344,7.289
1124,0.833,34.152,12.317,32.924,27.959,4.824,6.343,7.288
1125,0.817,33.894,12.371,32.924,27.956,4.905,6.343,7.329
1126,0.816,34.054,12.286,32.924,27.949,4.825,6.384,7.41
1127,0.82,34.171,12.32,32.915,27.955,4.865,6.344,7.411
1128,0.833,34.249,12.329,32.895,27.952,4.824,6.343,7.371
1129,0.833,33.847,12.36,32.905,27.956,4.824,6.343,7.37
1130,0.833,33.996,12.368,32.914,27.952,4.905,6.343,7.411
1131,0.836,34.113,12.345,32.934,27.956,4.825,6.343,7.33
1132,0.849,34.162,12.356,32.905,27.956,4.824,6.384,7.329
1133,0.859,33.923,12.313,32.914,27.949,4.783,6.344,7.451
1134,0.846,34.055,12.332,32.905,27.952,4.864,6.303,7.33
1135,0.849,34.171,12.348,32.905,27.949,4.784,6.343,7.329
1136,0.853,34.201,12.274,32.914,27.952,4.824,6.262,7.329
1137,0.856,34.067,12.305,32.895,27.956,4.824,6.302,7.289
1138,0.846,34.19,12.364,32.924,27.952,4.824,6.262,7.329
1139,0.843,34.326,12.388,32.905,27.952,4.743,6.302,7.37
1140,0.839,34.116,12.384,32.914,27.952,4.864,6.343,7.33
1141,0.836,33.922,12.353,32.895,27.945,4.784,6.303,7.329
1142,0.836,34.064,12.376,32.905,27.952,4.783,6.343,7.329
1143,0.836,34.209,12.36,32.924,27.956,4.864,6.343,7.37
1144,0.843,33.981,12.337,32.934,27.962,4.865,6.384,7.452
1145,0.843,34.084,12.379,32.934,27.959,4.906,6.507,7.493
1146,0.846,34.219,12.286,32.953,27.966,5.028,6.467,7.494
1147,0.846,34.326,12.32,32.924,27.959,4.989,6.467,7.453
1148,0.853,34.059,12.317,32.924,27.959,4.866,6.386,7.452
1149,0.866,34.209,12.399,32.915,27.956,4.865,6.344,7.33
1150,0.853,34.326,12.376,32.895,27.949,4.824,6.384,7.37
1151,0.856,34.433,12.36,32.895,27.949,4.783,6.385,7.289
1152,0.866,34.05,12.337,32.876,27.942,4.783,6.303,7.288
1153,0.859,34.209,12.305,32.885,27.952,4.742,6.343,7.288
1154,0.875,34.345,12.321,32.885,27.942,4.742,6.262,7.207
1155,0.876,34.414,12.336,32.866,27.948,4.742,6.221,7.206
1156,0.863,34.27,12.329,32.904,27.942,4.701,6.18,7.206
1157,0.866,34.403,12.297,32.886,27.945,4.701,6.261,7.206
1158,0.859,34.539,12.336,32.876,27.945,4.782,6.221,7.165
1159,0.856,34.588,12.391,32.866,27.942,4.742,6.261,7.165
1160,0.846,34.378,12.372,32.866,27.948,4.783,6.302,7.246
1161,0.84,34.548,12.349,32.876,27.938,4.783,6.221,7.166
1162,0.83,34.646,12.348,32.876,27.945,4.824,6.302,7.246
1163,0.826,34.695,12.344,32.885,27.948,4.783,6.262,7.247
1164,0.846,34.59,12.341,32.895,27.949,4.783,6.302,7.369
1165,0.84,34.704,12.36,32.886,27.949,4.783,6.384,7.289
1166,0.839,34.849,12.294,32.895,27.949,4.824,6.344,7.288
1167,0.846,34.908,12.313,32.886,27.949,4.743,6.343,7.288
1168,0.866,34.822,12.317,32.876,27.955,4.783,6.384,7.288
1169,0.862,34.927,12.364,32.885,27.956,4.783,6.344,7.288
1170,0.859,35.033,12.368,32.876,27.952,4.824,6.425,7.288
1171,0.859,34.814,12.356,32.866,27.949,4.865,6.426,7.288
1172,0.856,34.898,12.372,32.856,27.945,4.824,6.344,7.288
1173,0.866,35.042,12.333,32.847,27.945,4.702,6.303,7.207
1174,0.885,35.14,12.305,32.837,27.942,4.66,6.302,7.125
1175,0.882,35.285,12.356,32.856,27.938,4.741,6.302,7.083
1176,0.876,35.449,12.29,32.885,27.952,4.742,6.343,7.042
1177,0.889,35.585,12.313,32.857,27.952,4.742,6.343,7.082
1178,0.889,35.653,12.321,32.856,27.952,4.823,6.343,7.205
1179,0.885,35.261,12.375,32.866,27.956,4.824,6.425,7.206
1180,0.882,35.41,12.38,32.866,27.952,4.865,6.466,7.247
1181,0.866,35.527,12.337,32.876,27.956,4.824,6.467,7.206
1182,0.882,35.586,12.391,32.876,27.952,4.865,6.507,7.247
1183,0.872,35.385,12.364,32.866,27.959,4.906,6.427,7.206
1184,0.882,35.555,12.341,32.866,27.956,4.865,6.466,7.165
1185,0.869,35.653,12.395,32.895,27.956,4.824,6.426,7.206
1186,0.879,35.702,12.322,32.857,27.956,4.865,6.426,7.206
1187,0.885,35.674,12.336,32.876,27.952,4.865,6.426,7.247
1188,0.892,35.798,12.329,32.876,27.959,4.946,6.426,7.084
1189,0.889,35.905,12.368,32.876,27.952,4.866,6.385,7.164
1190,0.892,35.944,12.372,32.847,27.952,4.824,6.425,7.124
1191,0.899,35.878,12.317,32.856,27.949,4.865,6.385,7.124
1192,0.899,36.002,12.356,32.856,27.952,4.865,6.385,7.043
1193,0.912,36.118,12.321,32.866,27.959,4.865,6.385,7.082
1194,0.915,36.215,12.344,32.856,27.952,4.784,6.385,7.002
1195,0.912,36.072,12.36,32.856,27.952,4.824,6.385,7.001
1196,0.922,36.224,12.267,32.866,27.956,4.824,6.344,7.001
1197,0.922,36.321,12.351,32.866,27.949,4.865,6.384,7.001
1198,0.909,36.121,12.36,32.856,27.952,4.865,6.385,7.001
1199,0.915,36.224,12.376,32.866,27.949,4.865,6.385,7.082
1200,0.922,36.36,12.353,32.866,27.952,4.824,6.425,7.042
1201,0.912,36.486,12.345,32.885,27.959,4.905,6.507,7.164
1202,0.899,36.669,12.383,32.895,27.966,4.947,6.549,7.206
1203,0.899,36.834,12.337,32.895,27.966,5.029,6.671,7.247
1204,0.908,36.951,12.364,32.886,27.963,5.03,6.591,7.328
1205,0.899,37.019,12.38,32.876,27.956,4.948,6.631,7.37
1206,0.905,36.272,12.298,32.876,27.959,4.866,6.631,7.289
1207,0.902,36.418,12.321,32.866,27.956,4.906,6.509,7.369
1208,0.895,36.515,12.325,32.856,27.949,4.825,6.508,7.33
1209,0.899,36.593,12.395,32.837,27.949,4.783,6.467,7.248
1210,0.918,36.565,12.329,32.837,27.952,4.824,6.467,7.206
1211,0.931,36.708,12.356,32.827,27.949,4.743,6.467,7.247
1212,0.935,36.825,12.325,32.827,27.945,4.742,6.386,7.166
1213,0.928,36.884,12.333,32.856,27.942,4.742,6.425,7.206
1214,0.935,37.038,12.333,32.837,27.948,4.783,6.466,7.125
1215,0.951,37.154,12.352,32.827,27.942,4.783,6.467,7.083
1216,0.932,37.261,12.325,32.846,27.952,4.702,6.386,7.123
1217,0.954,37.31,12.321,32.818,27.949,4.742,6.385,7.083
1218,0.932,36.543,12.364,32.837,27.952,4.783,6.385,7.042
1219,0.928,36.679,12.384,32.827,27.949,4.824,6.385,7.123
1220,0.931,36.786,12.38,32.827,27.945,4.865,6.385,7.043
1221,0.938,37.085,12.329,32.827,27.948,4.824,6.425,7.123
1222,0.915,36.992,12.36,32.837,27.949,4.783,6.426,7.043
1223,0.922,37.144,12.333,32.827,27.949,4.783,6.466,7.123
1224,0.941,37.222,12.329,32.818,27.949,4.824,6.345,7.124
1225,0.941,36.955,12.36,32.827,27.949,4.824,6.466,7.083
1226,0.938,37.019,12.329,32.837,27.952,4.783,6.507,7.083
1227,0.951,37.173,12.309,32.837,27.949,4.783,6.467,7.164
1228,0.961,37.232,12.317,32.847,27.952,4.824,6.426,7.043
1229,0.968,37.051,12.348,32.847,27.956,4.824,6.466,7.082
1230,0.984,37.174,12.352,32.828,27.952,4.865,6.386,7.123
1231,0.987,37.299,12.341,32.846,27.949,4.865,6.466,7.124
1232,0.987,37.368,12.344,32.847,27.955,4.865,6.467,7.124
1233,0.994,36.985,12.344,32.818,27.952,4.865,6.426,7.124
1234,0.991,37.134,12.325,32.827,27.949,4.865,6.426,7.165
1235,0.997,37.222,12.36,32.799,27.945,4.784,6.385,7.165
1236,0.984,37.281,12.309,32.798,27.938,4.742,6.344,7.124
1237,0.984,37.137,12.297,32.808,27.941,4.701,6.343,7.083
1238,0.984,37.289,12.336,32.818,27.945,4.742,6.343,7.083
1239,0.978,37.416,12.379,32.837,27.948,4.864,6.384,7.205
1240,0.99,37.455,12.372,32.837,27.949,4.824,6.466,7.328
1241,0.987,37.235,12.403,32.847,27.955,4.905,6.467,7.329
1242,0.984,37.367,12.38,32.856,27.952,4.906,6.467,7.37
1243,0.984,37.493,12.353,32.866,27.956,4.906,6.507,7.37
1244,0.987,37.514,12.317,32.856,27.956,4.865,6.467,7.452
1245,0.987,37.255,12.387,32.856,27.952,4.946,6.548,7.493
1246,0.991,37.358,12.353,32.828,27.959,4.947,6.508,7.494
1247,0.984,37.483,12.313,32.856,27.949,4.907,6.427,7.534
1248,1.0,37.772,12.309,32.828,27.955,4.906,6.385,7.534
1249,1.01,37.296,12.336,32.837,27.959,4.906,6.466,7.453
1250,1.007,37.406,12.387,32.847,27.959,4.906,6.467,7.493
1251,1.014,37.513,12.345,32.837,27.952,4.906,6.467,7.453
1252,1.014,37.274,12.38,32.827,27.956,4.906,6.386,7.493
1253,1.014,37.367,12.325,32.856,27.952,4.906,6.466,7.453
1254,1.007,37.455,12.309,32.818,27.956,4.947,6.426,7.412
1255,1.01,37.542,12.356,32.818,27.956,4.907,6.426,7.452
1256,1.01,37.255,12.29,32.808,27.949,4.906,6.466,7.534
1257,0.997,37.415,12.309,32.827,27.955,4.865,6.386,7.453
1258,0.987,37.542,12.317,32.827,27.956,4.987,6.425,7.493
1259,0.984,37.6,12.336,32.818,27.956,4.826,6.385,7.453
1260,0.984,37.448,12.395,32.827,27.952,4.824,6.385,7.452
1261,0.978,37.619,12.368,32.837,27.956,4.946,6.425,7.493
1262,0.981,37.755,12.407,32.837,27.952,4.907,6.385,7.453
1263,0.961,37.813,12.329,32.856,27.956,4.906,6.425,7.412
1264,0.974,37.267,12.325,32.866,27.962,4.947,6.466,7.533
1265,0.958,37.396,12.383,32.837,27.963,4.947,6.467,7.616
1266,0.951,37.503,12.341,32.856,27.963,4.988,6.589,7.535
1267,0.945,37.552,12.348,32.837,27.956,4.907,6.509,7.534
1268,0.948,37.37,12.298,32.837,27.959,4.865,6.508,7.534
1269,0.938,37.512,12.328,32.808,27.956,4.824,6.467,7.453
1270,0.925,37.6,12.383,32.798,27.956,4.824,6.467,7.412
1271,0.944,37.658,12.38,32.817,27.949,4.783,6.467,7.371
1272,0.932,37.314,12.384,32.808,27.949,4.824,6.426,7.411
1273,0.925,37.435,12.243,32.818,27.945,4.824,6.344,7.33
1274,0.928,37.571,12.324,32.808,27.945,4.824,6.384,7.289
1275,0.935,37.898,12.368,32.798,27.948,4.743,6.344,7.207
1276,0.925,37.479,12.321,32.817,27.949,4.742,6.384,7.247
1277,0.931,37.619,12.336,32.789,27.955,4.742,6.344,7.247
1278,0.912,37.716,12.325,32.808,27.949,4.823,6.303,7.166
1279,0.912,37.362,12.329,32.798,27.949,4.743,6.384,7.206
1280,0.905,37.368,12.399,32.798,27.942,4.783,6.344,7.165
1281,0.892,37.512,12.337,32.808,27.948,4.783,6.343,7.124
1282,0.886,37.6,12.387,32.827,27.949,4.824,6.425,7.083
1283,0.882,37.38,12.345,32.856,27.955,4.783,6.426,7.123
1284,0.859,37.503,12.321,32.818,27.956,4.824,6.466,7.165
1285,0.859,37.629,12.352,32.808,27.952,4.905,6.507,7.124
1286,0.856,37.716,12.317,32.818,27.945,4.825,6.467,7.083
1287,0.862,37.324,12.325,32.808,27.948,4.865,6.507,7.083
1288,0.866,37.445,12.313,32.798,27.949,4.824,6.467,7.042
1289,0.869,37.561,12.36,32.798,27.949,4.824,6.507,7.042
1290,0.863,37.61,12.391,32.789,27.942,4.824,6.427,7.042
1291,0.849,37.342,12.349,32.769,27.942,4.743,6.426,7.001
1292,0.859,37.464,12.356,32.779,27.942,4.742,6.344,6.96
1293,0.866,37.609,12.337,32.808,27.945,4.701,6.425,6.838
1294,0.866,37.678,12.325,32.789,27.948,4.823,6.466,6.877
1295,0.869,37.458,12.379,32.798,27.955,4.865,6.467,6.837
1296,0.863,37.619,12.278,32.817,27.952,4.906,6.548,6.877
1297,0.866,37.745,12.328,32.827,27.962,4.865,6.549,6.959
1298,0.856,37.785,12.344,32.818,27.952,4.865,6.59,7.0
1299,0.843,37.488,12.411,32.827,27.959,4.987,6.549,6.96
1300,0.83,37.619,12.361,32.818,27.952,4.907,6.63,7.041
1301,0.82,37.716,12.364,32.837,27.956,4.906,6.55,6.96
1302,0.82,37.851,12.36,32.818,27.952,4.865,6.671,6.919
1303,0.81,37.556,12.349,32.818,27.962,4.906,6.713,7.081
1304,0.797,37.696,12.329,32.808,27.956,4.906,6.632,7.042
1305,0.781,37.794,12.383,32.818,27.956,4.906,6.672,7.001
1306,0.793,37.584,12.298,32.827,27.956,4.906,6.672,6.96
1307,0.81,37.62,12.336,32.808,27.952,4.865,6.631,7.0
1308,0.81,37.745,12.356,32.818,27.959,4.906,6.631,7.001
1309,0.82,37.813,12.376,32.808,27.952,4.825,6.631,7.001
1310,0.82,37.517,12.395,32.798,27.952,4.946,6.59,6.96
1311,0.826,37.667,12.345,32.798,27.952,4.907,6.509,7.0
1312,0.82,37.774,12.383,32.789,27.956,4.906,6.549,6.96
1313,0.813,37.881,12.306,32.808,27.952,4.906,6.549,6.96
1314,0.816,37.489,12.305,32.808,27.949,4.865,6.549,6.96
1315,0.829,37.638,12.336,32.798,27.949,4.824,6.549,6.838
1316,0.833,37.755,12.278,32.779,27.949,4.865,6.549,6.877
1317,0.823,37.842,12.32,32.808,27.955,4.784,6.468,6.877
1318,0.807,37.651,12.344,32.808,27.952,4.864,6.426,6.877
1319,0.82,37.774,12.399,32.808,27.959,4.824,6.548,6.877
1320,0.803,37.91,12.419,32.827,27.966,4.946,6.508,6.918
1321,0.803,37.959,12.376,32.808,27.963,4.907,6.63,6.878
1322,0.8,37.624,12.388,32.827,27.966,4.987,6.631,6.959
1323,0.787,37.764,12.345,32.827,27.963,4.988,6.631,7.041
1324,0.784,37.89,12.337,32.827,27.97,4.988,6.672,7.001
1325,0.771,37.892,12.376,32.799,27.959,4.948,6.631,6.96
1326,0.774,37.728,12.321,32.798,27.952,4.988,6.468,6.919
1327,0.774,37.852,12.301,32.798,27.956,4.866,6.548,6.837
1328,0.79,37.939,12.328,32.77,27.952,4.865,6.468,6.837
1329,0.793,37.95,12.364,32.788,27.949,4.824,6.467,6.755
1330,0.797,37.681,12.341,32.769,27.945,4.824,6.386,6.754
1331,0.8,37.803,12.368,32.779,27.945,4.824,6.425,6.632
1332,0.797,37.891,12.341,32.769,27.952,4.743,6.507,6.753
1333,0.797,37.748,12.337,32.769,27.945,4.823,6.427,6.632
1334,0.81,37.756,12.313,32.779,27.945,4.824,6.385,6.631
1335,0.807,37.881,12.364,32.789,27.948,4.824,6.466,6.59
1336,0.8,37.987,12.278,32.769,27.949,4.783,6.467,6.631
1337,0.8,37.691,12.297,32.769,27.949,4.783,6.386,6.631
1338,0.8,37.813,12.344,32.788,27.949,4.783,6.385,6.59
1339,0.8,37.939,12.352,32.798,27.945,4.783,6.385,6.671
1340,0.8,37.997,12.395,32.779,27.952,4.783,6.466,6.591
1341,0.781,37.854,12.337,32.789,27.945,4.783,6.467,6.631
1342,0.787,37.968,12.372,32.789,27.952,4.905,6.426,6.59
1343,0.777,38.084,12.321,32.779,27.949,4.865,6.507,6.549
1344,0.787,38.181,12.352,32.798,27.955,4.865,6.508,6.63
1345,0.784,37.818,12.368,32.789,27.952,4.865,6.508,6.712
1346,0.777,37.958,12.313,32.798,27.956,4.824,6.589,6.632
1347,0.78,38.065,12.332,32.779,27.952,4.865,6.549,6.59
1348,0.774,38.104,12.297,32.779,27.952,4.824,6.508,6.631
1349,0.777,37.836,12.336,32.769,27.949,4.824,6.467,6.59
1350,0.784,37.958,12.348,32.75,27.949,4.702,6.426,6.549
1351,0.79,38.094,12.321,32.75,27.942,4.742,6.466,6.427
1352,0.8,38.114,12.372,32.759,27.945,4.701,6.467,6.426
1353,0.8,37.999,12.333,32.769,27.952,4.782,6.507,6.507
1354,0.82,38.151,12.321,32.788,27.952,4.783,6.467,6.427
1355,0.82,38.239,12.372,32.789,27.952,4.864,6.507,6.548
1356,0.817,38.259,12.317,32.789,27.956,4.865,6.63,6.549
1357,0.807,38.02,12.332,32.808,27.956,4.906,6.631,6.508
1358,0.803,38.133,12.317,32.798,27.956,4.865,6.55,6.589
1359,0.79,38.239,12.36,32.808,27.952,4.865,6.59,6.549
1360,0.797,38.077,12.391,32.818,27.952,4.906,6.631,6.549
1361,0.777,38.056,12.357,32.798,27.959,4.865,6.631,6.508
1362,0.78,38.181,12.38,32.798,27.959,4.906,6.631,6.508
1363,0.78,38.297,12.353,32.817,27.952,4.865,6.672,6.549
1364,0.771,38.078,12.325,32.798,27.959,4.824,6.631,6.549
1365,0.777,38.181,12.391,32.798,27.963,4.824,6.631,6.468
1366,0.764,38.307,12.349,32.789,27.963,4.905,6.59,6.548
1367,0.774,38.404,12.337,32.779,27.952,4.865,6.59,6.549
1368,0.793,37.897,12.313,32.779,27.952,4.865,6.712,6.549
1369,0.8,38.026,12.325,32.789,27.956,4.824,6.632,6.508
1370,0.803,38.142,12.387,32.769,27.952,4.865,6.672,6.549
1371,0.813,38.23,12.353,32.769,27.952,4.906,6.631,6.59
1372,0.816,38.106,12.368,32.769,27.949,4.865,6.631,6.509
1373,0.813,38.239,12.298,32.779,27.945,4.865,6.55,6.508
1374,0.803,38.374,12.324,32.779,27.948,4.824,6.508,6.467
1375,0.823,38.443,12.356,32.779,27.949,4.783,6.589,6.507
1376,0.83,38.108,12.36,32.789,27.955,4.864,6.549,6.467
1377,0.826,38.268,12.368,32.846,27.959,4.906,6.671,6.507
1378,0.804,38.365,12.325,32.799,27.969,4.947,6.631,6.549
1379,0.81,38.405,12.352,32.789,27.966,4.947,6.672,6.63
1380,0.803,38.204,12.384,32.798,27.966,4.988,6.713,6.631
1381,0.777,38.317,12.353,32.808,27.97,4.948,6.713,6.672
1382,0.771,38.414,12.384,32.76,27.959,4.907,6.713,6.631
1383,0.77,38.424,12.294,32.779,27.956,4.865,6.713,6.59
1384,0.767,38.223,12.317,32.76,27.956,4.824,6.632,6.549
1385,0.774,38.336,12.348,32.769,27.956,4.783,6.631,6.508
1386,0.774,38.433,12.352,32.76,27.945,4.783,6.631,6.427
1387,0.777,38.194,12.356,32.827,27.945,4.742,6.59,6.426
1388,0.787,38.096,12.341,32.751,27.948,4.742,6.549,6.344
1389,0.79,38.21,12.352,32.74,27.942,4.742,6.508,6.384
1390,0.8,38.297,12.352,32.75,27.948,4.742,6.549,6.385
1391,0.803,38.135,12.376,32.731,27.949,4.823,6.59,6.385
1392,0.8,38.258,12.368,32.75,27.949,4.743,6.509,6.425
1393,0.81,38.365,12.372,32.827,27.945,4.783,6.549,6.426
1394,0.82,38.452,12.286,32.751,27.945,4.783,6.63,6.385
1395,0.83,38.041,12.352,32.74,27.952,4.783,6.55,6.425
1396,0.82,38.161,12.298,32.74,27.952,4.742,6.549,6.385
1397,0.807,38.307,12.313,32.74,27.949,4.783,6.63,6.466
1398,0.803,38.366,12.325,32.759,27.952,4.864,6.712,6.467
1399,0.8,38.146,12.34,32.731,27.956,4.824,6.672,6.426
1400,0.777,38.297,12.395,32.75,27.956,4.783,6.753,6.426
1401,0.774,38.394,12.388,32.769,27.956,4.824,6.754,6.507
1402,0.767,38.453,12.384,32.74,27.952,4.824,6.673,6.467
1403,0.774,38.051,12.247,32.759,27.949,4.743,6.713,6.507
1404,0.777,38.181,12.32,32.74,27.949,4.905,6.754,6.589
1405,0.774,38.288,12.36,32.731,27.949,4.784,6.795,6.509
1406,0.78,38.317,12.325,32.721,27.945,4.742,6.673,6.508
1407,0.784,38.164,12.297,32.778,27.945,4.661,6.672,6.467
1408,0.797,38.307,12.305,32.741,27.938,4.7,6.631,6.467
1409,0.807,38.413,12.328,32.74,27.941,4.742,6.631,6.426
1410,0.81,38.434,12.387,32.74,27.948,4.823,6.631,6.466
1411,0.807,38.117,12.38,32.769,27.949,4.783,6.712,6.507
1412,0.81,38.239,12.372,32.76,27.955,4.783,6.794,6.63
1413,0.807,38.346,12.298,32.75,27.956,4.864,6.795,6.55
1414,0.836,38.155,12.324,32.75,27.952,4.784,6.795,6.549
1415,0.82,38.048,12.368,32.75,27.962,4.905,6.795,6.549
1416,0.817,38.181,12.329,32.769,27.963,4.865,6.795,6.508
1417,0.836,38.278,12.336,32.817,27.956,4.824,6.795,6.63
1418,0.817,37.953,12.321,32.751,27.952,4.905,6.795,6.631
1419,0.816,38.065,12.36,32.74,27.956,4.865,6.836,6.631
1420,0.813,38.171,12.415,32.75,27.959,4.865,6.796,6.55
1421,0.803,38.268,12.376,32.759,27.956,4.865,6.714,6.63
1422,0.807,37.953,12.384,32.75,27.956,4.824,6.754,6.631
1423,0.794,38.084,12.318,32.75,27.959,4.905,6.754,6.631
1424,0.78,38.219,12.297,32.74,27.952,4.825,6.754,6.712
1425,0.777,38.298,12.324,32.75,27.952,4.865,6.632,6.672
1426,0.787,37.886,12.375,32.74,27.952,4.824,6.712,6.672
1427,0.78,38.016,12.278,32.759,27.959,4.783,6.713,6.591
1428,0.8,38.142,12.297,32.74,27.956,4.864,6.672,6.631
1429,0.794,38.191,12.336,32.74,27.956,4.784,6.713,6.631
1430,0.806,37.895,12.395,32.74,27.952,4.783,6.672,6.631
1431,0.81,38.045,12.372,32.731,27.952,4.824,6.672,6.631
1432,0.807,38.152,12.36,32.75,27.949,4.824,6.631,6.59
1433,0.816,38.201,12.329,32.74,27.955,4.824,6.631,6.631
1434,0.826,37.684,12.305,32.74,27.956,4.783,6.631,6.59
1435,0.839,37.822,12.344,32.75,27.966,4.783,6.631,6.59
1436,0.833,37.929,12.407,32.779,27.959,4.905,6.672,6.59
1437,0.82,37.969,12.345,32.769,27.966,4.947,6.794,6.671
1438,0.803,37.739,12.344,32.76,27.963,4.907,6.673,6.713
1439,0.8,37.871,12.337,32.76,27.963,4.906,6.672,6.713
1440,0.79,37.958,12.356,32.74,27.959,4.906,6.631,6.632
1441,0.787,37.844,12.337,32.74,27.952,4.865,6.672,6.672
1442,0.784,37.718,12.333,32.711,27.952,4.865,6.55,6.591
1443,0.78,37.842,12.348,32.721,27.952,4.743,6.508,6.509
1444,0.78,37.958,12.337,32.721,27.942,4.823,6.549,6.549
1445,0.787,37.624,12.313,32.721,27.948,4.824,6.468,6.63
1446,0.793,37.745,12.399,32.721,27.945,4.702,6.467,6.59
1447,0.784,37.852,12.337,32.73,27.948,4.742,6.386,6.549
1448,0.79,37.949,12.309,32.788,27.942,4.742,6.385,6.59
1449,0.806,37.432,12.321,32.702,27.948,4.823,6.385,6.509
1450,0.807,37.542,12.301,32.721,27.942,4.824,6.425,6.589
1451,0.816,37.687,12.348,32.711,27.945,4.783,6.385,6.549
1452,0.813,37.765,12.321,32.721,27.952,4.824,6.425,6.59
1453,0.823,37.535,12.336,32.73,27.949,4.824,6.344,6.631
1454,0.826,37.677,12.309,32.721,27.949,4.824,6.384,6.59
1455,0.826,37.784,12.332,32.721,27.945,4.865,6.425,6.631
1456,0.826,37.843,12.368,32.721,27.948,4.865,6.466,6.55
1457,0.826,37.421,12.302,32.73,27.952,4.784,6.426,6.549
1458,0.807,37.57,12.317,32.731,27.949,4.742,6.426,6.63
1459,0.81,37.716,12.309,32.74,27.952,4.823,6.466,6.59
1460,0.8,37.727,12.34,32.731,27.959,4.905,6.426,6.671
1461,0.79,37.535,12.344,32.731,27.956,4.865,6.385,6.631
1462,0.78,37.677,12.321,32.711,27.952,4.865,6.385,6.672
1463,0.78,37.755,12.305,32.711,27.949,4.824,6.466,6.591
1464,0.777,37.804,12.325,32.711,27.945,4.743,6.386,6.631
1465,0.78,37.478,12.309,32.692,27.945,4.783,6.385,6.672
1466,0.777,37.638,12.375,32.711,27.945,4.783,6.344,6.631
1467,0.8,37.736,12.341,32.74,27.948,4.783,6.303,6.631
1468,0.807,37.621,12.337,32.759,27.949,4.824,6.384,6.672
1469,0.807,37.429,12.337,32.731,27.952,4.865,6.385,6.713
1470,0.816,37.551,12.337,32.74,27.956,4.865,6.466,6.713
1471,0.826,37.639,12.348,32.759,27.959,4.824,6.507,6.672
1472,0.813,37.294,12.341,32.74,27.959,4.905,6.508,6.713
1473,0.807,37.387,12.321,32.74,27.963,4.906,6.508,6.794
1474,0.816,37.512,12.336,32.731,27.956,4.865,6.549,6.714
1475,0.813,37.6,12.325,32.731,27.959,4.906,6.508,6.672
1476,0.82,37.39,12.395,32.731,27.959,4.825,6.467,6.713
1477,0.81,37.532,12.349,32.721,27.956,4.905,6.507,6.754
1478,0.787,37.658,12.329,32.75,27.956,4.825,6.467,6.754
1479,0.8,37.736,12.325,32.731,27.952,4.905,6.507,6.714
1480,0.803,37.18,12.305,32.731,27.956,4.865,6.549,6.754
1481,0.794,37.328,12.34,32.702,27.959,4.865,6.549,6.714
1482,0.793,37.445,12.309,32.73,27.956,4.824,6.59,6.672
1483,0.797,37.523,12.368,32.721,27.952,4.824,6.549,6.753
1484,0.781,37.332,12.341,32.74,27.952,4.865,6.549,6.714
1485,0.787,37.474,12.305,32.721,27.956,4.906,6.671,6.794
1486,0.79,37.59,12.371,32.711,27.952,4.865,6.672,6.795
1487,0.793,37.658,12.345,32.721,27.952,4.865,6.672,6.755
1488,0.797,37.295,12.305,32.721,27.956,4.824,6.713,6.795
1489,0.813,37.425,12.321,32.75,27.959,4.905,6.632,6.836
1490,0.807,37.513,12.332,32.75,27.966,4.947,6.753,6.837
1491,0.82,37.533,12.372,32.74,27.973,4.988,6.836,6.918
1492,0.813,37.399,12.349,32.721,27.963,4.988,6.796,6.878
1493,0.803,37.493,12.352,32.721,27.952,4.948,6.714,6.918
1494,0.807,37.609,12.305,32.711,27.952,4.866,6.672,6.756
1495,0.823,37.524,12.317,32.692,27.952,4.865,6.713,6.836
1496,0.813,37.255,12.34,32.701,27.949,4.784,6.632,6.714
1497,0.794,37.406,12.305,32.701,27.945,4.783,6.59,6.713
1498,0.797,37.522,12.305,32.778,27.948,4.742,6.631,6.713
1499,0.8,37.313,12.293,32.693,27.942,4.742,6.59,6.754
1500,0.784,37.387,12.336,32.692,27.942,4.742,6.59,6.714
1501,0.777,37.532,12.344,32.701,27.948,4.823,6.549,6.713
1502,0.784,37.639,12.36,32.682,27.942,4.743,6.63,6.713
1503,0.764,37.179,12.317,32.692,27.945,4.823,6.59,6.672
1504,0.774,37.328,12.329,32.721,27.952,4.824,6.671,6.713
1505,0.774,37.445,12.333,32.702,27.949,4.743,6.631,6.713
1506,0.771,37.523,12.344,32.692,27.952,4.783,6.631,6.672
1507,0.78,37.236,12.333,32.701,27.945,4.783,6.753,6.713
1508,0.803,37.358,12.317,32.759,27.945,4.824,6.714,6.713
1509,0.816,37.483,12.274,32.721,27.945,4.824,6.672,6.713
1510,0.826,37.542,12.324,32.711,27.948,4.824,6.713,6.754
1511,0.823,37.303,12.36,32.711,27.949,4.783,6.754,6.754
1512,0.81,37.445,12.349,32.711,27.955,4.824,6.795,6.754
1513,0.803,37.561,12.372,32.721,27.949,4.783,6.755,6.795
1514,0.81,37.61,12.329,32.702,27.949,4.824,6.754,6.714
1515,0.81,37.313,12.321,32.711,27.949,4.783,6.795,6.713
1516,0.803,37.445,12.364,32.711,27.955,4.864,6.836,6.794
1517,0.8,37.551,12.278,32.721,27.949,4.824,6.918,6.755
1518,0.781,37.572,12.289,32.702,27.952,4.824,6.878,6.714
1519,0.78,37.227,12.258,32.692,27.949,4.865,6.837,6.794
1520,0.787,37.377,12.328,32.682,27.942,4.743,6.796,6.755
1521,0.777,37.493,12.336,32.682,27.945,4.701,6.795,6.673
1522,0.784,37.533,12.329,32.682,27.942,4.742,6.795,6.713
1523,0.79,37.265,12.36,32.701,27.948,4.742,6.795,6.632
1524,0.8,37.415,12.345,32.692,27.945,4.701,6.795,6.672
1525,0.784,37.513,12.333,32.711,27.948,4.742,6.836,6.713
1526,0.784,37.293,12.391,32.711,27.952,4.823,6.877,6.713
1527,0.793,37.368,12.357,32.721,27.956,4.865,6.877,6.754
1528,0.8,37.503,12.235,32.73,27.959,4.865,6.959,6.754
1529,0.8,37.6,12.308,32.74,27.956,4.906,6.878,6.714
1530,0.8,37.198,12.352,32.702,27.956,4.906,6.918,6.754
1531,0.803,37.319,12.329,32.721,27.956,4.825,6.919,6.754
1532,0.803,37.454,12.344,32.702,27.956,4.865,7.0,6.836
1533,0.807,37.523,12.341,32.721,27.959,4.906,6.919,6.755
1534,0.8,37.255,12.344,32.711,27.952,4.825,6.878,6.714
1535,0.803,37.386,12.341,32.702,27.962,4.824,6.959,6.754
1536,0.807,37.493,12.387,32.711,27.952,4.824,6.919,6.714
1537,0.803,37.562,12.341,32.702,27.956,4.946,6.919,6.754
1538,0.79,37.227,12.294,32.74,27.956,4.825,6.837,6.714
1539,0.784,37.377,12.313,32.721,27.956,4.865,6.837,6.713
1540,0.777,37.484,12.325,32.711,27.956,4.824,6.837,6.754
1541,0.767,37.523,12.348,32.73,27.952,4.865,6.796,6.673
1542,0.764,37.284,12.305,32.702,27.956,4.865,6.877,6.713
1543,0.774,37.406,12.371,32.701,27.962,4.824,6.918,6.835
1544,0.764,37.541,12.349,32.701,27.956,4.865,6.878,6.714
1545,0.767,37.572,12.329,32.701,27.952,4.743,6.837,6.794
1546,0.774,37.217,12.379,32.701,27.949,4.864,6.877,6.755
1547,0.784,37.377,12.353,32.701,27.949,4.824,6.837,6.754
1548,0.78,37.484,12.266,32.73,27.955,4.865,6.877,6.714
1549,0.793,37.581,12.32,32.74,27.959,4.946,6.959,6.754
1550,0.79,37.14,12.309,32.75,27.963,4.988,7.041,6.795
1551,0.8,37.27,12.344,32.731,27.966,4.988,7.001,6.836
1552,0.794,37.367,12.329,32.721,27.963,4.907,7.041,6.837
1553,0.793,37.167,12.34,32.711,27.959,4.947,6.96,6.837
1554,0.797,37.232,12.321,32.682,27.959,4.866,6.96,6.755
1555,0.794,37.348,12.309,32.692,27.952,4.743,6.878,6.754
1556,0.793,37.435,12.387,32.673,27.952,4.823,6.877,6.673
1557,0.79,37.034,12.31,32.672,27.952,4.783,6.837,6.713
1558,0.78,37.173,12.301,32.692,27.949,4.783,6.877,6.672
1559,0.774,37.299,12.305,32.692,27.942,4.702,6.715,6.631
1560,0.764,37.387,12.321,32.682,27.945,4.782,6.794,6.631
1561,0.764,37.014,12.36,32.673,27.945,4.742,6.795,6.631
1562,0.777,37.164,12.321,32.682,27.948,4.783,6.755,6.631
1563,0.771,37.251,12.348,32.682,27.945,4.702,6.754,6.631
1564,0.764,37.358,12.325,32.692,27.948,4.701,6.754,6.631
1565,0.764,37.062,12.293,32.692,27.949,4.782,6.714,6.712
1566,0.754,37.193,12.383,32.692,27.949,4.783,6.672,6.632
1567,0.767,37.3,12.314,32.701,27.945,4.783,6.713,6.631
1568,0.777,37.368,12.336,32.721,27.955,4.742,6.672,6.631
1569,0.793,37.052,12.348,32.673,27.945,4.742,6.713,6.55
1570,0.803,37.183,12.341,32.682,27.955,4.783,6.713,6.671
1571,0.797,37.29,12.341,32.682,27.949,4.742,6.713,6.591
1572,0.794,37.329,12.344,32.701,27.949,4.783,6.754,6.631
1573,0.793,37.052,12.341,32.682,27.955,4.864,6.632,6.631
1574,0.813,37.193,12.305,32.682,27.945,4.743,6.672,6.672
1575,0.813,37.3,12.332,32.663,27.952,4.783,6.713,6.672
1576,0.79,37.502,12.376,32.672,27.952,4.742,6.632,6.631
1577,0.777,36.881,12.29,32.653,27.945,4.783,6.631,6.672
1578,0.764,37.028,12.289,32.653,27.952,4.742,6.55,6.55
1579,0.761,37.173,12.317,32.663,27.942,4.701,6.59,6.63
1580,0.764,36.973,12.348,32.672,27.945,4.66,6.549,6.59
1581,0.767,37.067,12.356,32.682,27.948,4.741,6.59,6.509
1582,0.774,37.202,12.356,32.682,27.952,4.864,6.549,6.711
1583,0.787,37.271,12.325,32.692,27.956,4.824,6.63,6.713
1584,0.777,36.946,12.329,32.682,27.956,4.865,6.672,6.754
1585,0.771,37.057,12.34,32.701,27.959,4.906,6.631,6.795
1586,0.774,37.193,12.387,32.711,27.956,4.865,6.672,6.795
1587,0.771,37.28,12.267,32.692,27.959,4.906,6.672,6.795
1588,0.777,36.802,12.312,32.692,27.959,4.825,6.672,6.795
1589,0.767,36.95,12.297,32.701,27.956,4.824,6.591,6.836
1590,0.78,37.067,12.395,32.682,27.959,4.905,6.631,6.796
1591,0.78,37.135,12.392,32.682,27.959,4.865,6.672,6.795
1592,0.787,36.954,12.403,32.682,27.952,4.906,6.631,6.917
1593,0.787,37.096,12.314,32.692,27.959,4.825,6.631,6.878
1594,0.793,37.232,12.325,32.682,27.959,4.824,6.59,6.877
1595,0.787,37.252,12.352,32.682,27.956,4.905,6.549,6.755
1596,0.78,36.696,12.36,32.682,27.956,4.784,6.59,6.836
1597,0.777,36.863,12.255,32.682,27.956,4.864,6.59,6.877
1598,0.761,36.961,12.297,32.692,27.945,4.743,6.468,6.877
1599,0.767,37.01,12.324,32.692,27.955,4.823,6.507,6.837
1600,0.767,36.847,12.356,32.682,27.959,4.865,6.589,6.796
1601,0.774,36.98,12.372,32.682,27.959,4.906,6.509,6.795
1602,0.771,37.125,12.356,32.682,27.952,4.784,6.508,6.755
1603,0.777,37.462,12.341,32.701,27.966,4.905,6.508,6.836
1604,0.761,36.861,12.337,32.711,27.97,4.947,6.67,6.918
1605,0.767,36.989,12.368,32.711,27.97,5.029,6.631,6.878
1606,0.774,37.077,12.392,32.692,27.966,4.948,6.672,6.918
1607,0.774,36.809,12.286,32.711,27.966,4.988,6.631,6.959
1608,0.774,36.835,12.293,32.682,27.959,4.907,6.59,6.96
1609,0.787,36.97,12.274,32.692,27.956,4.906,6.631,6.96
1610,0.771,37.038,12.363,32.682,27.956,4.947,6.59,6.878
1611,0.787,36.541,12.341,32.663,27.952,4.866,6.509,6.837
1612,0.787,36.651,12.368,32.672,27.952,4.784,6.508,6.837
1613,0.784,36.786,12.302,32.672,27.949,4.742,6.549,6.837
1614,0.784,36.854,12.305,32.653,27.952,4.783,6.508,6.714
1615,0.79,36.635,12.36,32.663,27.949,4.783,6.508,6.713
1616,0.79,36.786,12.345,32.672,27.942,4.742,6.467,6.713
1617,0.751,36.902,12.282,32.663,27.948,4.742,6.467,6.672
1618,0.748,36.98,12.289,32.663,27.945,4.742,6.426,6.713
1619,0.744,36.626,12.313,32.653,27.948,4.742,6.426,6.794
1620,0.754,36.757,12.379,32.663,27.945,4.783,6.426,6.755
1621,0.754,36.883,12.341,32.663,27.952,4.742,6.507,6.754
1622,0.744,36.942,12.376,32.672,27.952,4.701,6.467,6.795
1623,0.738,36.568,12.298,32.672,27.952,4.782,6.507,6.755
1624,0.738,36.718,12.332,32.672,27.952,4.864,6.467,6.795
1625,0.741,36.844,12.352,32.663,27.956,4.702,6.507,6.795
1626,0.751,36.855,12.384,32.682,27.956,4.782,6.467,6.755
1627,0.748,36.635,12.294,32.673,27.959,4.783,6.507,6.836
1628,0.764,36.786,12.305,32.672,27.949,4.783,6.467,6.755
1629,0.761,36.874,12.321,32.682,27.949,4.824,6.467,6.795
1630,0.761,37.085,12.356,32.663,27.952,4.824,6.426,6.755
1631,0.767,36.589,12.348,32.653,27.952,4.824,6.466,6.714
1632,0.764,36.709,12.333,32.644,27.945,4.824,6.467,6.713
1633,0.777,36.834,12.305,32.643,27.942,4.702,6.467,6.672
1634,0.79,36.5,12.313,32.643,27.945,4.66,6.304,6.631
1635,0.79,36.497,12.375,32.643,27.948,4.741,6.302,6.631
1636,0.79,36.641,12.388,32.663,27.942,4.742,6.343,6.631
1637,0.774,36.738,12.255,32.672,27.952,4.742,6.425,6.631
1638,0.787,36.403,12.305,32.672,27.952,4.783,6.426,6.631
1639,0.774,36.534,12.297,32.682,27.956,4.824,6.466,6.712
1640,0.767,36.66,12.387,32.682,27.952,4.824,6.386,6.754
1641,0.757,36.729,12.36,32.682,27.956,4.824,6.466,6.795
1642,0.757,36.442,12.356,32.673,27.959,4.865,6.548,6.795
1643,0.761,36.582,12.325,32.682,27.956,4.865,6.549,6.836
1644,0.77,36.718,12.309,32.673,27.956,4.865,6.468,6.877
1645,0.751,36.767,12.356,32.682,27.956,4.824,6.467,6.837
1646,0.738,36.336,12.376,32.682,27.959,4.905,6.426,6.837
1647,0.757,36.486,12.294,32.701,27.949,4.825,6.426,6.796
1648,0.767,36.612,12.324,32.673,27.955,4.824,6.466,6.836
1649,0.764,36.642,12.313,32.663,27.956,4.783,6.467,6.796
1650,0.757,36.326,12.371,32.672,27.952,4.824,6.467,6.877
1651,0.764,36.476,12.356,32.672,27.956,4.783,6.386,6.796
1652,0.767,36.592,12.376,32.672,27.949,4.824,6.466,6.795
1653,0.77,36.613,12.31,32.663,27.962,4.865,6.426,6.877
1654,0.787,36.44,12.332,32.663,27.952,4.824,6.385,6.837
1655,0.78,36.592,12.34,32.663,27.949,4.865,6.303,6.877
1656,0.784,36.689,12.391,32.663,27.949,4.824,6.343,6.877
1657,0.777,36.729,12.236,32.663,27.955,4.824,6.466,6.918
1658,0.784,36.326,12.297,32.672,27.949,4.824,6.345,6.878
1659,0.78,36.476,12.328,32.682,27.962,4.865,6.384,7.0
1660,0.767,36.554,12.364,32.682,27.963,4.906,6.425,6.96
1661,0.757,36.421,12.391,32.701,27.97,4.987,6.507,7.122
1662,0.761,36.438,12.353,32.682,27.963,4.907,6.508,7.124
1663,0.751,36.544,12.352,32.682,27.963,4.865,6.427,7.124
1664,0.735,36.651,12.325,32.673,27.963,4.906,6.344,7.124
1665,0.741,36.144,12.329,32.663,27.956,4.865,6.384,7.083
1666,0.741,36.234,12.368,32.663,27.956,4.824,6.385,7.002
1667,0.751,36.35,12.356,32.644,27.949,4.743,6.222,7.041
1668,0.764,36.457,12.333,32.672,27.955,4.742,6.261,7.042
1669,0.774,36.19,12.29,32.644,27.945,4.742,6.302,6.96
1670,0.784,36.35,12.352,32.643,27.948,4.742,6.221,7.0
1671,0.777,36.457,12.321,32.643,27.949,4.783,6.261,7.001
1672,0.777,36.535,12.34,32.643,27.949,4.742,6.18,7.001
1673,0.774,36.152,12.333,32.643,27.949,4.661,6.22,6.96
1674,0.787,36.301,12.321,32.643,27.945,4.782,6.22,7.0
1675,0.8,36.418,12.336,32.653,27.945,4.824,6.18,6.96
1676,0.794,36.467,12.383,32.653,27.955,4.783,6.22,7.041
1677,0.787,36.122,12.31,32.653,27.952,4.783,6.18,7.042
1678,0.764,36.263,12.274,32.672,27.949,4.783,6.261,7.123
1679,0.757,36.399,12.305,32.663,27.959,4.783,6.221,7.124
1680,0.761,36.429,12.371,32.644,27.952,4.824,6.22,7.165
1681,0.754,36.237,12.36,32.653,27.956,4.824,6.302,7.124
1682,0.751,36.36,12.349,32.653,27.959,4.824,6.302,7.205
1683,0.738,36.467,12.341,32.644,27.952,4.824,6.302,7.287
1684,0.731,36.487,12.337,32.663,27.952,4.865,6.302,7.288
1685,0.734,36.104,12.298,32.634,27.949,4.743,6.302,7.288
1686,0.741,36.224,12.36,32.624,27.945,4.742,6.18,7.247
1687,0.744,36.331,12.329,32.643,27.945,4.742,6.179,7.288
1688,0.744,36.169,12.266,32.663,27.948,4.701,6.22,7.247
1689,0.77,36.206,12.297,32.653,27.952,4.823,6.22,7.247
1690,0.777,36.34,12.348,32.663,27.956,4.743,6.261,7.288
1691,0.784,36.428,12.372,32.672,27.952,4.783,6.302,7.369
1692,0.777,36.045,12.36,32.672,27.959,4.824,6.302,7.33
1693,0.79,36.147,12.364,32.672,27.956,4.824,6.302,7.289
1694,0.793,36.273,12.337,32.672,27.959,4.783,6.384,7.491
1695,0.797,36.379,12.356,32.663,27.963,4.905,6.344,7.412
1696,0.777,36.208,12.415,32.663,27.956,4.784,6.343,7.411
1697,0.78,36.34,12.31,32.663,27.959,4.824,6.343,7.371
1698,0.774,36.495,12.313,32.663,27.959,4.865,6.343,7.411
1699,0.761,36.545,12.305,32.663,27.959,4.824,6.343,7.289
1700,0.77,35.836,12.328,32.663,27.963,4.865,6.303,7.369
1701,0.767,35.982,12.364,32.653,27.959,4.824,6.343,7.37
1702,0.774,36.108,12.333,32.653,27.956,4.865,6.303,7.37
1703,0.767,36.167,12.352,32.663,27.956,4.824,6.343,7.37
1704,0.754,35.995,12.329,32.672,27.966,4.865,6.384,7.452
1705,0.748,36.147,12.321,32.672,27.959,4.865,6.344,7.371
1706,0.76,36.234,12.356,32.663,27.952,4.824,6.343,7.33
1707,0.754,36.302,12.352,32.663,27.959,4.824,6.262,7.37
1708,0.757,35.958,12.255,32.672,27.956,4.743,6.302,7.289
1709,0.761,36.098,12.297,32.663,27.956,4.783,6.302,7.369
1710,0.774,36.205,12.309,32.644,27.956,4.783,6.302,7.33
1711,0.787,36.264,12.328,32.653,27.962,4.864,6.302,7.37
1712,0.79,35.967,12.356,32.691,27.963,4.865,6.384,7.411
1713,0.803,36.108,12.352,32.701,27.963,4.946,6.466,7.493
1714,0.807,36.215,12.368,32.682,27.966,4.988,6.507,7.575
1715,0.79,35.995,12.325,32.673,27.963,4.948,6.549,7.575
1716,0.787,35.916,12.391,32.663,27.963,4.866,6.508,7.494
1717,0.761,36.031,12.384,32.644,27.956,4.784,6.467,7.494
1718,0.764,36.147,12.282,32.643,27.952,4.742,6.426,7.534
1719,0.77,35.793,12.324,32.634,27.942,4.783,6.344,7.372
1720,0.774,35.924,12.293,32.624,27.952,4.742,6.343,7.452
1721,0.754,36.06,12.356,32.643,27.952,4.823,6.343,7.493
1722,0.751,36.147,12.302,32.634,27.952,4.783,6.343,7.453
1723,0.757,35.803,12.367,32.624,27.952,4.742,6.384,7.412
1724,0.748,35.962,12.337,32.643,27.945,4.742,6.385,7.371
1725,0.741,36.089,12.309,32.634,27.945,4.742,6.385,7.452
1726,0.757,36.176,12.371,32.643,27.945,4.742,6.466,7.493
1727,0.748,35.765,12.341,32.624,27.952,4.701,6.467,7.412
1728,0.764,35.924,12.27,32.653,27.949,4.782,6.467,7.411
1729,0.767,36.05,12.324,32.653,27.949,4.702,6.507,7.411
1730,0.767,36.099,12.313,32.663,27.952,4.742,6.508,7.493
1731,0.77,35.745,12.325,32.653,27.949,4.823,6.508,7.412
1732,0.783,35.904,12.305,32.644,27.952,4.824,6.589,7.493
1733,0.787,36.011,12.352,32.643,27.956,4.783,6.549,7.412
1734,0.79,36.07,12.333,32.653,27.956,4.824,6.59,7.411
1735,0.787,35.946,12.34,32.644,27.952,4.824,6.631,7.33
1736,0.78,36.06,12.372,32.634,27.952,4.824,6.631,7.37
1737,0.761,36.166,12.329,32.634,27.945,4.824,6.631,7.37
1738,0.735,36.177,12.333,32.634,27.948,4.743,6.59,7.33
1739,0.764,35.679,12.29,32.624,27.945,4.701,6.549,7.329
1740,0.754,35.798,12.36,32.624,27.945,4.701,6.549,7.248
1741,0.77,35.934,12.329,32.624,27.948,4.701,6.549,7.247
1742,0.767,35.858,12.325,32.643,27.955,4.823,6.63,7.247
1743,0.774,35.8,12.344,32.653,27.956,4.824,6.672,7.288
1744,0.771,35.934,12.36,32.663,27.959,4.905,6.713,7.329
1745,0.774,36.031,12.294,32.663,27.959,4.825,6.713,7.329
1746,0.774,35.61,12.344,32.663,27.956,4.865,6.794,7.37
1747,0.774,35.692,12.337,32.653,27.962,4.865,6.714,7.411
1748,0.777,35.827,12.301,32.663,27.956,4.906,6.754,7.33
1749,0.793,35.924,12.34,32.644,27.959,4.947,6.754,7.329
1750,0.787,35.647,12.321,32.663,27.959,4.907,6.795,7.248
1751,0.784,35.798,12.332,32.663,27.956,4.825,6.673,7.288
1752,0.784,35.934,12.317,32.663,27.962,4.865,6.753,7.288
1753,0.787,36.002,12.379,32.634,27.959,4.824,6.795,7.247
1754,0.803,35.59,12.329,32.662,27.949,4.824,6.714,7.206
1755,0.81,35.721,12.348,32.634,27.955,4.824,6.794,7.125
1756,0.8,35.847,12.352,32.643,27.962,4.865,6.755,7.124
1757,0.794,35.934,12.337,32.653,27.959,4.865,6.754,7.165
1758,0.771,35.59,12.27,32.653,27.959,4.865,6.714,7.124
1759,0.764,35.73,12.32,32.634,27.956,4.906,6.754,7.124
1760,0.754,35.837,12.317,32.624,27.956,4.784,6.714,7.083
1761,0.757,35.924,12.352,32.701,27.952,4.864,6.672,7.123
1762,0.774,35.638,12.313,32.663,27.956,4.824,6.753,7.124
1763,0.774,35.788,12.368,32.644,27.959,4.905,6.714,7.043
1764,0.767,35.914,12.352,32.749,27.963,4.947,6.794,7.082
1765,0.761,35.935,12.317,32.673,27.966,4.988,6.795,7.164
1766,0.757,35.58,12.379,32.663,27.963,4.988,6.836,7.206
1767,0.77,35.72,12.392,32.663,27.959,4.948,6.877,7.084
1768,0.78,35.799,12.314,32.644,27.959,4.907,6.796,7.042
1769,0.793,35.694,12.317,32.643,27.959,4.865,6.714,7.082
1770,0.797,35.559,12.313,32.615,27.956,4.865,6.754,7.042
1771,0.797,35.701,12.317,32.624,27.945,4.824,6.673,6.92
1772,0.787,35.779,12.332,32.614,27.952,4.743,6.672,6.919
1773,0.777,35.502,12.36,32.624,27.945,4.701,6.672,6.919
1774,0.767,35.605,12.329,32.643,27.948,4.66,6.631,6.837
1775,0.774,35.74,12.309,32.624,27.949,4.741,6.712,6.796
1776,0.793,35.837,12.387,32.643,27.952,4.742,6.754,6.795
1777,0.787,35.368,12.337,32.624,27.949,4.783,6.673,6.836
1778,0.777,35.498,12.262,32.634,27.949,4.783,6.713,6.837
1779,0.774,35.633,12.305,32.634,27.945,4.783,6.754,6.837
1780,0.774,35.721,12.297,32.624,27.948,4.783,6.754,6.796
1781,0.78,35.492,12.348,32.634,27.955,4.824,6.795,6.836
1782,0.771,35.652,12.305,32.634,27.956,4.824,6.714,6.837
1783,0.761,35.779,12.371,32.624,27.959,4.824,6.713,6.796
1784,0.741,35.857,12.337,32.643,27.959,4.783,6.713,6.836
1785,0.741,35.445,12.313,32.634,27.956,4.824,6.754,6.837
1786,0.731,35.575,12.371,32.624,27.949,4.824,6.795,6.796
1787,0.744,35.663,12.31,32.614,27.955,4.824,6.673,6.795
1788,0.767,35.731,12.266,32.614,27.945,4.743,6.713,6.795
1789,0.767,35.319,12.293,32.595,27.942,4.701,6.672,6.673
1790,0.78,35.459,12.293,32.614,27.948,4.701,6.631,6.631
1791,0.787,35.585,12.336,32.634,27.949,4.742,6.631,6.672
1792,0.8,35.625,12.309,32.653,27.955,4.823,6.672,6.713
1793,0.787,35.443,12.368,32.653,27.956,4.743,6.672,6.754
1794,0.797,35.614,12.341,32.644,27.952,4.823,6.713,6.754
1795,0.8,35.711,12.313,32.634,27.962,4.865,6.713,6.795
1796,0.797,35.664,12.375,32.643,27.956,4.865,6.672,6.795
1797,0.774,35.51,12.314,32.643,27.962,4.865,6.753,6.836
1798,0.777,35.662,12.274,32.653,27.956,4.824,6.754,6.837
1799,0.767,35.76,12.281,32.634,27.962,4.905,6.714,6.837
1800,0.767,35.262,12.328,32.634,27.959,4.906,6.672,6.877
1801,0.761,35.343,12.329,32.643,27.963,4.906,6.672,6.959
1802,0.761,35.488,12.329,32.643,27.963,4.865,6.672,6.878
1803,0.754,35.566,12.368,32.643,27.963,4.865,6.672,6.959
1804,0.757,35.366,12.341,32.643,27.952,4.946,6.672,7.0
1805,0.757,35.517,12.309,32.653,27.959,4.907,6.672,7.041
1806,0.757,35.624,12.336,32.653,27.959,4.825,6.631,7.042
1807,0.751,35.702,12.364,32.653,27.959,4.865,6.631,7.082
1808,0.77,35.213,12.286,32.624,27.952,4.946,6.631,7.083
1809,0.77,35.391,12.32,32.634,27.959,4.866,6.55,7.164
1810,0.774,35.498,12.313,32.643,27.952,4.865,6.549,7.246
1811,0.774,35.566,12.356,32.634,27.962,4.906,6.59,7.288
1812,0.774,35.375,12.341,32.634,27.956,4.865,6.631,7.288
1813,0.787,35.517,12.368,32.634,27.952,4.784,6.59,7.288
1814,0.8,35.672,12.325,32.643,27.949,4.824,6.509,7.369
1815,0.8,35.721,12.344,32.643,27.955,4.905,6.549,7.37
1816,0.803,35.137,12.372,32.653,27.956,4.906,6.549,7.452
1817,0.8,35.284,12.329,32.672,27.956,4.906,6.549,7.452
1818,0.777,35.42,12.336,32.74,27.969,5.028,6.712,7.574
1819,0.78,35.45,12.321,32.673,27.963,5.03,6.551,7.657
1820,0.78,35.288,12.352,32.653,27.963,4.989,6.59,7.658
1821,0.767,35.42,12.321,32.624,27.966,4.907,6.631,7.617
1822,0.757,35.508,12.321,32.624,27.956,4.947,6.55,7.617
1823,0.767,35.509,12.34,32.624,27.949,4.907,6.549,7.617
1824,0.761,35.307,12.337,32.614,27.952,4.865,6.59,7.657
1825,0.751,35.43,12.313,32.634,27.956,4.824,6.549,7.617
1826,0.761,35.527,12.34,32.624,27.959,4.905,6.508,7.617
1827,0.764,35.288,12.321,32.614,27.956,4.825,6.467,7.617
1828,0.767,35.372,12.235,32.605,27.952,4.783,6.507,7.576
1829,0.761,35.517,12.297,32.614,27.942,4.783,6.467,7.616
1830,0.774,35.605,12.328,32.605,27.955,4.824,6.426,7.576
1831,0.771,35.107,12.325,32.605,27.952,4.783,6.426,7.616
1832,0.774,35.246,12.352,32.614,27.949,4.783,6.466,7.576
1833,0.774,35.372,12.356,32.614,27.952,4.742,6.467,7.616
1834,0.784,35.469,12.313,32.624,27.952,4.823,6.507,7.617
1835,0.774,35.086,12.286,32.634,27.959,4.783,6.508,7.576
1836,0.774,35.226,12.344,32.624,27.952,4.824,6.508,7.616
1837,0.78,35.343,12.317,32.605,27.956,4.865,6.549,7.617
1838,0.761,35.421,12.329,32.633,27.956,4.824,6.549,7.535
1839,0.764,35.153,12.329,32.624,27.956,4.783,6.508,7.534
1840,0.767,35.294,12.356,32.614,27.956,4.864,6.589,7.616
1841,0.757,35.42,12.384,32.624,27.949,4.824,6.509,7.576
1842,0.764,35.47,12.341,32.605,27.952,4.865,6.508,7.575
1843,0.748,35.115,12.352,32.624,27.949,4.784,6.508,7.575
1844,0.734,35.256,12.321,32.614,27.949,4.783,6.549,7.535
1845,0.757,35.372,12.309,32.595,27.945,4.783,6.549,7.453
1846,0.757,35.421,12.356,32.576,27.948,4.702,6.468,7.452
1847,0.761,35.067,12.333,32.595,27.949,4.66,6.426,7.371
1848,0.78,35.217,12.255,32.605,27.949,4.741,6.385,7.33
1849,0.79,35.352,12.297,32.614,27.949,4.742,6.425,7.451
1850,0.777,35.44,12.293,32.634,27.955,4.823,6.426,7.412
1851,0.784,35.163,12.328,32.643,27.959,4.865,6.507,7.411
1852,0.787,35.313,12.336,32.643,27.956,4.906,6.467,7.493
1853,0.787,35.401,12.344,32.634,27.959,4.906,6.507,7.453
1854,0.8,35.038,12.341,32.643,27.959,4.906,6.508,7.452
1855,0.803,35.082,12.341,32.643,27.963,4.906,6.549,7.412
1856,0.79,35.236,12.376,32.615,27.952,4.825,6.549,7.371
1857,0.767,35.314,12.337,32.624,27.956,4.824,6.427,7.411
1858,0.764,34.97,12.286,32.634,27.962,4.905,6.466,7.452
1859,0.774,35.101,12.305,32.634,27.959,4.865,6.467,7.412
1860,0.78,35.236,12.352,32.624,27.956,4.865,6.467,7.411
1861,0.767,35.324,12.317,32.691,27.959,4.906,6.467,7.371
1862,0.757,35.008,12.336,32.625,27.959,4.865,6.507,7.33
1863,0.761,35.139,12.344,32.605,27.952,4.865,6.427,7.37
1864,0.751,35.265,12.216,32.643,27.956,4.906,6.466,7.411
1865,0.757,35.343,12.3,32.624,27.956,4.865,6.467,7.33
1866,0.757,35.104,12.34,32.624,27.956,4.824,6.548,7.329
1867,0.754,35.236,12.368,32.634,27.949,4.865,6.386,7.329
1868,0.767,35.372,12.317,32.624,27.952,4.906,6.425,7.289
1869,0.777,35.44,12.34,32.595,27.956,4.784,6.426,7.329
1870,0.793,34.866,12.27,32.614,27.952,4.864,6.426,7.329
1871,0.8,35.023,12.32,32.71,27.962,4.906,6.507,7.289
1872,0.807,35.14,12.321,32.654,27.97,4.906,6.427,7.329
1873,0.807,35.16,12.387,32.644,27.973,4.987,6.548,7.41
1874,0.816,34.959,12.345,32.624,27.963,4.948,6.63,7.411
1875,0.803,35.081,12.317,32.643,27.963,4.947,6.59,7.371
1876,0.797,35.198,12.368,32.624,27.966,4.988,6.509,7.33
1877,0.803,35.4,12.329,32.605,27.959,4.948,6.467,7.289
1878,0.781,34.98,12.282,32.614,27.959,4.785,6.467,7.288
1879,0.764,35.11,12.289,32.605,27.945,4.824,6.467,7.247
1880,0.754,35.198,12.289,32.614,27.945,4.783,6.345,7.288
1881,0.748,34.902,12.246,32.605,27.952,4.742,6.384,7.207
1882,0.764,34.956,12.277,32.586,27.949,4.783,6.385,7.247
1883,0.767,35.072,12.359,32.585,27.949,4.824,6.344,7.125
1884,0.748,35.188,12.309,32.624,27.949,4.783,6.343,7.246
1885,0.764,34.834,12.293,32.605,27.945,4.742,6.384,7.206
1886,0.767,34.965,12.332,32.586,27.952,4.823,6.303,7.287
1887,0.767,35.081,12.352,32.595,27.949,4.783,6.343,7.207
1888,0.774,35.179,12.298,32.585,27.945,4.824,6.343,7.206
1889,0.761,34.786,12.305,32.605,27.952,4.865,6.262,7.247
1890,0.767,34.936,12.317,32.595,27.952,4.824,6.302,7.288
1891,0.767,35.072,12.329,32.643,27.952,4.865,6.302,7.247
1892,0.78,35.14,12.321,32.605,27.952,4.865,6.302,7.328
1893,0.793,34.757,12.36,32.605,27.949,4.824,6.343,7.329
1894,0.8,34.916,12.349,32.672,27.952,4.865,6.343,7.248
1895,0.813,35.043,12.305,32.596,27.956,4.865,6.384,7.328
1896,0.803,35.082,12.367,32.624,27.959,4.865,6.344,7.289
1897,0.8,34.891,12.341,32.595,27.952,4.824,6.343,7.288
1898,0.794,35.033,12.305,32.576,27.949,4.865,6.343,7.207
1899,0.803,35.168,12.274,32.576,27.942,4.743,6.262,7.247
1900,0.8,35.208,12.313,32.585,27.948,4.742,6.262,7.166
1901,0.807,34.825,12.278,32.585,27.955,4.783,6.302,7.165
1902,0.813,34.984,12.305,32.614,27.952,4.824,6.384,7.206
1903,0.816,35.091,12.387,32.614,27.956,4.905,6.466,7.125
1904,0.807,35.505,12.306,32.624,27.962,4.987,6.507,7.205
1905,0.82,35.422,12.344,32.614,27.959,4.907,6.549,7.287
1906,0.826,35.556,12.36,32.614,27.956,4.906,6.549,7.247
1907,0.833,35.653,12.391,32.624,27.966,4.906,6.549,7.288
1908,0.843,34.897,12.325,32.624,27.956,4.906,6.549,7.247
1909,0.853,34.822,12.34,32.614,27.966,4.825,6.63,7.288
1910,0.859,34.965,12.298,32.624,27.956,4.865,6.59,7.207
1911,0.869,35.053,12.246,32.634,27.959,4.865,6.59,7.247
1912,0.863,34.68,12.308,32.615,27.956,4.946,6.59,7.166
1913,0.869,34.8,12.368,32.614,27.959,4.866,6.468,7.246
1914,0.882,34.965,12.317,32.643,27.959,4.906,6.548,7.166
1915,0.898,35.062,12.309,32.595,27.956,4.825,6.59,7.206
1916,0.892,34.699,12.348,32.605,27.952,4.865,6.509,7.125
1917,0.892,34.839,12.329,32.595,27.959,4.906,6.549,7.205
1918,0.889,34.975,12.294,32.614,27.959,4.906,6.549,7.165
1919,0.882,35.053,12.313,32.586,27.952,4.865,6.508,7.124
1920,0.872,34.728,12.336,32.605,27.959,4.906,6.467,7.165
1921,0.872,34.897,12.29,32.614,27.963,4.865,6.548,7.124
1922,0.866,35.023,12.324,32.614,27.959,4.946,6.549,7.205
1923,0.866,35.072,12.352,32.605,27.959,4.866,6.508,7.247
1924,0.882,34.776,12.313,32.633,27.956,4.906,6.549,7.328
1925,0.879,34.936,12.317,32.624,27.962,4.865,6.549,7.37
1926,0.879,35.043,12.34,32.624,27.963,4.987,6.63,7.452
1927,0.882,35.073,12.356,32.634,27.97,4.988,6.631,7.493
1928,0.898,34.699,12.329,32.624,27.963,4.988,6.55,7.534
1929,0.892,34.839,12.329,32.672,27.959,4.988,6.63,7.657
1930,0.905,34.956,12.29,32.605,27.963,4.907,6.509,7.576
1931,0.905,35.216,12.285,32.605,27.959,4.865,6.549,7.494
1932,0.902,34.777,12.305,32.586,27.952,4.906,6.468,7.534
1933,0.905,34.907,12.356,32.585,27.952,4.825,6.507,7.534
1934,0.912,35.004,12.306,32.585,27.952,4.824,6.508,7.534
1935,0.905,34.641,12.293,32.566,27.949,4.783,6.467,7.494
1936,0.908,34.618,12.313,32.566,27.949,4.783,6.467,7.412
1937,0.899,34.752,12.364,32.576,27.949,4.824,6.386,7.452
1938,0.895,34.849,12.317,32.585,27.949,4.783,6.466,7.452
1939,0.892,34.505,12.317,32.614,27.945,4.824,6.467,7.493
1940,0.892,34.607,12.293,32.586,27.948,4.824,6.507,7.453
1941,0.879,34.733,12.317,32.585,27.952,4.783,6.549,7.412
1942,0.872,34.849,12.329,32.595,27.952,4.824,6.549,7.452
1943,0.869,34.601,12.364,32.585,27.952,4.865,6.63,7.493
1944,0.876,34.742,12.321,32.605,27.949,4.824,6.59,7.494
1945,0.869,34.897,12.34,32.605,27.959,4.824,6.631,7.494
1946,0.872,34.947,12.329,32.605,27.959,4.865,6.631,7.494
1947,0.879,34.458,12.36,32.595,27.952,4.784,6.55,7.534
1948,0.872,34.597,12.352,32.605,27.959,4.824,6.63,7.494
1949,0.885,34.713,12.29,32.586,27.956,4.865,6.672,7.453
1950,0.879,34.772,12.274,32.585,27.956,4.784,6.631,7.534
1951,0.889,34.543,12.258,32.566,27.949,4.824,6.631,7.494
1952,0.892,34.703,12.312,32.576,27.949,4.743,6.55,7.453
1953,0.902,34.83,12.336,32.585,27.949,4.783,6.59,7.371
1954,0.895,34.879,12.348,32.557,27.949,4.742,6.549,7.289
1955,0.908,34.563,12.325,32.595,27.955,4.823,6.508,7.288
1956,0.915,34.694,12.336,32.605,27.956,4.946,6.508,7.288
1957,0.905,34.82,12.344,32.595,27.959,4.947,6.63,7.369
1958,0.905,34.84,12.364,32.624,27.949,4.866,6.55,7.289
1959,0.895,34.524,12.306,32.614,27.955,4.946,6.63,7.329
1960,0.895,34.674,12.301,32.614,27.959,4.866,6.631,7.37
1961,0.892,34.772,12.328,32.624,27.963,4.987,6.631,7.411
1962,0.882,34.562,12.321,32.605,27.956,4.948,6.631,7.33
1963,0.876,34.579,12.34,32.595,27.959,4.947,6.672,7.289
1964,0.863,34.694,12.36,32.595,27.963,4.907,6.713,7.288
1965,0.846,34.82,12.337,32.614,27.952,4.865,6.632,7.288
1966,0.843,34.399,12.321,32.605,27.959,4.946,6.672,7.329
1967,0.853,34.491,12.375,32.605,27.956,4.907,6.672,7.248
1968,0.846,34.655,12.368,32.605,27.962,4.906,6.713,7.206
1969,0.849,34.724,12.345,32.595,27.963,4.865,6.713,7.206
1970,0.843,34.475,12.325,32.595,27.956,4.906,6.713,7.247
1971,0.839,34.578,12.321,32.595,27.959,4.865,6.754,7.166
1972,0.826,34.742,12.309,32.605,27.956,4.906,6.795,7.124
1973,0.807,34.811,12.36,32.595,27.956,4.825,6.795,7.165
1974,0.79,34.409,12.309,32.605,27.956,4.783,6.714,7.206
1975,0.8,34.558,12.317,32.595,27.956,4.824,6.835,7.125
1976,0.794,34.665,12.34,32.585,27.956,4.905,6.796,7.083
1977,0.777,34.781,12.383,32.595,27.956,4.947,6.795,7.002
1978,0.767,34.447,12.388,32.624,27.962,4.947,6.755,7.082
1979,0.774,34.606,12.294,32.634,27.966,4.988,6.795,7.083
1980,0.774,34.704,12.332,32.624,27.966,4.988,6.958,7.164
1981,0.764,34.724,12.337,32.624,27.959,4.948,6.96,7.165
1982,0.754,34.341,12.309,32.614,27.963,4.947,6.919,7.124
1983,0.751,34.481,12.34,32.595,27.956,4.907,6.837,7.083
1984,0.754,34.597,12.337,32.595,27.949,4.865,6.877,7.164
1985,0.741,34.618,12.344,32.585,27.955,4.743,6.837,7.084
1986,0.738,34.493,12.309,32.585,27.949,4.783,6.714,7.042
1987,0.747,34.636,12.344,32.585,27.949,4.783,6.754,6.96
1988,0.76,34.743,12.387,32.605,27.952,4.742,6.754,6.96
1989,0.735,34.475,12.31,32.576,27.945,4.783,6.714,7.0
1990,0.751,34.424,12.321,32.585,27.948,4.742,6.672,6.919
1991,0.748,34.549,12.344,32.585,27.952,4.742,6.794,7.0
1992,0.76,34.665,12.325,32.585,27.956,4.823,6.755,6.96
1993,0.741,34.302,12.333,32.585,27.952,4.783,6.754,7.0
1994,0.754,34.413,12.325,32.585,27.945,4.783,6.754,6.96
1995,0.761,34.568,12.348,32.585,27.952,4.783,6.754,7.0
1996,0.748,34.656,12.302,32.585,27.945,4.783,6.836,7.001
1997,0.747,34.321,12.344,32.576,27.955,4.824,6.755,7.001
1998,0.741,34.461,12.352,32.595,27.952,4.824,6.795,7.041
1999,0.734,34.597,12.298,32.595,27.956,4.783,6.836,7.042
2000,0.731,34.675,12.282,32.595,27.962,4.824,6.837,7.001
2001,0.712,34.302,12.328,32.557,27.959,4.743,6.877,6.96
2002,0.708,34.471,12.309,32.566,27.945,4.742,6.877,6.96
2003,0.721,34.578,12.313,32.566,27.945,4.742,6.837,7.0
2004,0.711,34.656,12.305,32.566,27.945,4.742,6.837,6.96
2005,0.715,34.215,12.317,32.566,27.952,4.701,6.796,6.919
2006,0.734,34.364,12.325,32.585,27.945,4.782,6.917,6.878
2007,0.728,34.481,12.364,32.595,27.952,4.824,6.878,6.877
2008,0.734,34.549,12.384,32.585,27.956,4.783,6.918,6.877
2009,0.734,34.339,12.314,32.595,27.952,4.864,6.959,6.959
2010,0.751,34.529,12.325,32.605,27.959,4.824,6.96,6.96
2011,0.751,34.617,12.309,32.595,27.963,4.824,7.0,7.0
2012,0.754,34.646,12.332,32.605,27.956,4.824,6.96,7.001
2013,0.761,34.292,12.372,32.614,27.962,4.865,7.0,7.041
2014,0.764,34.403,12.329,32.595,27.959,4.865,7.001,6.92
2015,0.757,34.529,12.317,32.614,27.963,4.865,7.001,7.0
2016,0.77,34.329,12.332,32.605,27.959,4.865,6.96,6.879
2017,0.764,34.279,12.376,32.595,27.956,4.865,7.0,7.0
2018,0.751,34.403,12.368,32.595,27.962,4.906,6.96,6.919
2019,0.744,34.491,12.282,32.595,27.963,4.947,6.96,7.0
2020,0.741,34.252,12.293,32.605,27.956,4.825,6.919,6.96
2021,0.734,34.374,12.328,32.586,27.966,4.905,6.919,7.0
2022,0.725,34.5,12.317,32.614,27.963,4.865,6.959,6.96
2023,0.724,34.597,12.356,32.605,27.963,4.865,6.919,7.0
2024,0.711,34.157,12.313,32.595,27.956,4.865,6.878,6.919
2025,0.724,34.325,12.313,32.605,27.962,4.743,6.837,6.959
2026,0.721,34.433,12.321,32.586,27.956,4.783,6.877,6.878
2027,0.724,34.52,12.364,32.595,27.956,4.864,6.877,6.877
2028,0.734,34.176,12.341,32.595,27.952,4.824,6.837,6.877
2029,0.738,34.335,12.27,32.595,27.956,4.824,6.837,6.877
2030,0.741,34.5,12.297,32.614,27.956,4.783,6.877,6.877
2031,0.757,34.559,12.324,32.624,27.969,4.905,6.877,6.877
2032,0.764,34.157,12.325,32.614,27.966,4.865,6.959,6.959
2033,0.744,34.297,12.383,32.624,27.966,4.946,7.0,6.96
2034,0.738,34.423,12.306,32.614,27.963,4.907,6.96,6.96
2035,0.738,34.472,12.336,32.605,27.966,4.947,7.0,6.96
2036,0.721,34.233,12.337,32.586,27.959,4.825,6.879,6.919
2037,0.698,34.345,12.364,32.576,27.959,4.865,6.918,6.919
2038,0.679,34.471,12.356,32.585,27.952,4.865,6.878,6.959
2039,0.656,34.511,12.247,32.566,27.952,4.824,6.837,6.919
2040,0.652,34.176,12.297,32.585,27.952,4.783,6.796,6.878
2041,0.659,34.316,12.305,32.566,27.949,4.742,6.795,6.837
2042,0.665,34.433,12.305,32.566,27.949,4.742,6.673,6.755
2043,0.669,34.204,12.364,32.556,27.945,4.742,6.713,6.795
2044,0.662,34.067,12.329,32.585,27.948,4.783,6.754,6.795
2045,0.685,34.209,12.313,32.576,27.952,4.702,6.673,6.836
2046,0.682,34.326,12.329,32.585,27.952,4.823,6.713,6.837
2047,0.711,34.116,12.387,32.576,27.949,4.783,6.713,6.796
2048,0.767,34.229,12.357,32.585,27.952,4.783,6.754,6.795
2049,0.809,34.355,12.247,32.585,27.962,4.702,6.754,6.836
2050,0.855,34.471,12.304,32.585,27.959,4.782,6.795,6.877
2051,0.888,34.012,12.27,32.576,27.956,4.783,6.755,6.877
2052,0.941,34.17,12.297,32.585,27.952,4.824,6.754,6.796
2053,0.997,34.306,12.352,32.595,27.962,4.743,6.714,6.795
2054,1.039,34.394,12.317,32.585,27.956,4.783,6.754,6.795
2055,1.066,34.011,12.325,32.585,27.956,4.824,6.754,6.795
2056,1.108,34.142,12.364,32.566,27.956,4.865,6.714,6.795
2057,1.145,34.249,12.407,32.585,27.956,4.865,6.713,6.755
2058,1.174,34.326,12.314,32.557,27.949,4.743,6.713,6.876
2059,1.233,34.059,12.313,32.566,27.949,4.742,6.632,6.796
2060,1.325,34.229,12.274,32.556,27.942,4.701,6.631,6.795
2061,1.368,34.336,12.297,32.556,27.945,4.66,6.631,6.795
2062,1.385,34.433,12.297,32.575,27.948,4.7,6.55,6.877
2063,1.414,34.194,12.379,32.566,27.955,4.742,6.63,6.959
2064,1.434,34.335,12.329,32.604,27.959,4.783,6.631,7.041
2065,1.476,34.481,12.336,32.605,27.959,4.864,6.631,7.123
2066,1.539,34.492,12.344,32.595,27.959,4.824,6.672,7.246
2067,1.578,34.108,12.352,32.595,27.959,4.783,6.753,7.288
2068,1.624,34.229,12.368,32.585,27.963,4.905,6.632,7.288
2069,1.628,34.355,12.294,32.585,27.959,4.825,6.672,7.369
2070,1.654,34.203,12.344,32.585,27.966,4.824,6.672,7.411
2071,1.687,34.048,12.302,32.605,27.959,4.865,6.631,7.452
2072,1.713,34.2,12.325,32.605,27.963,4.865,6.672,7.412
2073,1.717,34.288,12.368,32.614,27.959,4.865,6.672,7.533
2074,1.736,34.049,12.325,32.595,27.959,4.824,6.631,7.575
2075,1.727,34.19,12.321,32.585,27.963,4.824,6.631,7.698
2076,1.681,34.316,12.317,32.585,27.956,4.824,6.672,7.74
2077,1.593,34.404,12.364,32.576,27.956,4.783,6.591,7.943
2078,1.543,34.011,12.349,32.585,27.959,4.824,6.549,8.148
2079,1.471,34.142,12.263,32.576,27.952,4.783,6.671,8.273
2080,1.395,34.277,12.305,32.595,27.956,4.824,6.55,8.68
2081,1.31,34.355,12.289,32.585,27.959,4.905,6.63,9.091
2082,1.218,33.963,12.317,32.585,27.956,4.825,6.59,9.502
2083,1.156,34.122,12.36,32.605,27.956,4.824,6.509,10.034
2084,1.116,34.248,12.321,32.595,27.956,4.783,6.63,10.568
2085,1.06,34.346,12.336,32.614,27.956,4.783,6.55,11.224
2086,1.024,33.992,12.337,32.595,27.962,4.864,6.59,11.759
2087,0.984,34.122,12.387,32.595,27.966,4.906,6.631,12.293
2088,0.965,34.248,12.376,32.614,27.966,4.947,6.712,12.705
2089,0.919,34.288,12.31,32.624,27.973,4.988,6.794,13.156
2090,0.883,34.039,12.305,32.624,27.959,4.907,6.714,13.405
2091,0.866,34.161,12.254,32.595,27.963,4.865,6.632,13.61
2092,0.859,34.278,12.289,32.585,27.956,4.824,6.59,13.694
2093,0.846,34.307,12.352,32.576,27.956,4.783,6.59,13.857
2094,0.836,34.011,12.282,32.604,27.949,4.742,6.509,13.737
2095,0.82,34.113,12.285,32.566,27.949,4.701,6.467,13.736
2096,0.826,34.22,12.336,32.566,27.949,4.823,6.507,13.817
2097,0.83,34.144,12.364,32.566,27.945,4.743,6.467,13.818
2098,0.82,33.923,12.286,32.576,27.948,4.742,6.548,13.981
2099,0.813,34.074,12.324,32.585,27.955,4.783,6.468,14.063
2100,0.816,34.19,12.305,32.566,27.949,4.742,6.548,14.227
2101,0.82,33.942,12.25,32.623,27.945,4.742,6.468,14.351
2102,0.813,34.055,12.34,32.586,27.952,4.742,6.507,14.758
2103,0.816,34.181,12.36,32.576,27.956,4.783,6.508,15.007
2104,0.826,34.287,12.255,32.604,27.956,4.783,6.508,15.334
2105,0.813,33.895,12.297,32.576,27.959,4.702,6.508,15.622
2106,0.81,34.025,12.356,32.576,27.952,4.782,6.467,15.869
2107,0.826,34.171,12.356,32.585,27.952,4.742,6.467,15.993
2108,0.833,34.239,12.298,32.566,27.952,4.783,6.548,16.117
2109,0.836,33.856,12.297,32.576,27.956,4.783,6.468,16.24
2110,0.833,33.987,12.321,32.585,27.952,4.864,6.467,16.241
2111,0.823,34.113,12.321,32.624,27.952,4.784,6.507,16.241
2112,0.83,34.181,12.297,32.576,27.956,4.742,6.508,16.241
2113,0.817,33.952,12.352,32.556,27.949,4.661,6.467,16.2
2114,0.829,34.132,12.313,32.604,27.949,4.7,6.426,15.915
2115,0.826,34.268,12.286,32.557,27.945,4.742,6.385,15.668
2116,0.833,34.327,12.328,32.566,27.948,4.661,6.344,15.544
2117,0.817,33.905,12.368,32.585,27.952,4.822,6.384,15.38
2118,0.807,34.064,12.29,32.595,27.952,4.824,6.507,15.134
2119,0.797,34.219,12.305,32.595,27.966,4.783,6.549,15.01
2120,0.784,34.249,12.293,32.585,27.956,4.824,6.549,14.806
2121,0.777,33.972,12.281,32.614,27.959,4.824,6.468,14.519
2122,0.777,34.122,12.32,32.595,27.963,4.905,6.589,14.313
2123,0.793,34.21,12.383,32.585,27.959,4.825,6.509,14.108
2124,0.774,34.527,12.282,32.595,27.956,4.865,6.589,13.902
2125,0.777,34.741,12.336,32.595,27.956,4.824,6.549,13.697
2126,0.777,34.859,12.329,32.595,27.962,4.905,6.508,13.492
2127,0.784,34.946,12.379,32.595,27.963,4.906,6.508,13.286
2128,0.797,33.787,12.345,32.576,27.956,4.865,6.508,13.04
2129,0.8,33.756,12.302,32.614,27.962,4.824,6.549,12.794
2130,0.797,33.9,12.282,32.605,27.956,4.865,6.508,12.588
2131,0.797,33.978,12.262,32.595,27.959,4.865,6.508,12.464
2132,0.8,33.854,12.324,32.585,27.956,4.824,6.508,12.219
2133,0.807,34.006,12.364,32.605,27.956,4.824,6.467,12.135
2134,0.807,34.132,12.329,32.586,27.952,4.824,6.507,11.972
2135,0.813,34.239,12.309,32.585,27.962,4.865,6.549,11.726
2136,0.82,33.789,12.336,32.566,27.963,4.824,6.549,11.601
2137,0.803,33.957,12.391,32.595,27.956,4.865,6.59,11.519
2138,0.8,34.074,12.364,32.585,27.956,4.824,6.549,11.355
2139,0.807,34.171,12.27,32.595,27.956,4.865,6.508,11.232
2140,0.8,33.789,12.285,32.585,27.959,4.824,6.549,11.068
2141,0.807,33.919,12.293,32.605,27.963,4.783,6.549,11.066
2142,0.787,34.083,12.313,32.605,27.963,4.824,6.508,10.944
2143,0.793,34.152,12.368,32.614,27.963,4.905,6.508,10.862
2144,0.78,33.894,12.333,32.614,27.976,4.947,6.63,10.861
2145,0.774,34.045,12.313,32.624,27.966,4.907,6.672,10.739
2146,0.764,34.161,12.321,32.624,27.963,4.865,6.672,10.616
2147,0.774,34.153,12.403,32.605,27.956,4.865,6.631,10.452
2148,0.787,33.712,12.38,32.566,27.956,4.784,6.509,10.288
